Timestamp,EMG_1,EMG_2,EMG_3,EMG_4,EMG_5,EMG_6,EMG_7,EMG_8,EMG_9,EMG_10,EMG_11,EMG_12,EMG_13,EMG_14,EMG_15,EMG_16,EMG_17,EMG_18,EMG_19,EMG_20,EMG_21,EMG_22,EMG_23,EMG_24,EMG_25,EMG_26,EMG_27,EMG_28,EMG_29,EMG_30,EMG_31,EMG_32
1778755641.9074502,12.171636513860946,40.31091258950666,35.18238993363528,46.46218629915906,19.650767126256603,29.137322073203723,27.070405734277607,26.242516775834375,-48.82043306454935,43.676932407975265,44.649339703170256,42.95205710575336,26.52982635857232,40.00485417305468,30.65900565641461,46.19497117513443,-0.2310919124699815,5.786731693243701,-10.00942345500934,38.56826066234394,22.215057703740307,2.7480768990544995,14.20519679553932,23.56205743363458,24.068477295936898,35.14044871360748,0.0,25.67696904440618,4.518127913165285,18.686993033281787,2.518484836516266,-1.984843536251792
1778755641.9079502,1.1657404425098785,31.231176291439972,24.75949593742328,35.23793258749748,12.097504368525945,21.44875050238747,21.225001389087456,19.260589602263785,-49.83349768176986,34.751959804783105,35.69313374615972,34.492310147585954,20.41367962208606,33.7135530288524,22.198095325091202,36.27200239829463,-0.16914741197261426,-4.230393997037929,-21.69781664279934,28.794134502159856,14.043961321281706,-3.0645069187130485,4.1272432694440795,13.732021761530536,13.057380486762458,25.233809417326025,0.0,17.603699992392148,-2.08159233624576,9.581008178259708,-6.592515024242594,-11.564860213981113
1778755641.9084501,-12.64982472468181,27.402479138534932,19.17586305538869,34.0119875575393,0.6235938111294135,14.441510176037248,9.021831152664005,13.36262244271553,-74.42806914719714,33.72677366151482,35.5322863646956,31.43332502520124,14.852831134624042,28.354959888278973,15.483821495621697,34.27188310892988,0.14964650712532854,-27.020742896756644,-51.85394163615809,24.40182802246268,-4.674008124674989,-30.597636443842138,-10.928571957398496,-1.8291524322060586,0.9106606090528638,17.976130163552842,0.0,7.044500175054707,-18.910681653874136,-1.5944494112506165,-25.12897061620113,-29.15539590536598
1778755641.90895,-20.46990014147708,13.9086039001034,7.227311867736661,21.312170817321743,-4.084167257969333,4.880970663012801,0.6587998042680879,3.6848398301125784,-78.39789476574408,20.792086875363267,22.07189303728428,18.691674702537348,1.891937523693437,17.51414385287003,2.9834325857629413,19.67070310780066,0.3853082654729901,-31.06614327930523,-50.939316739495844,13.519473345499247,-10.930982294777442,-31.15444238248037,-16.932620104786256,-7.374783117223423,-9.338701150517752,4.603034080871394,0.0,-2.554077233196078,-26.156271049238573,-11.513275881809369,-31.127322540311102,-36.37330723226452
1778755641.9094503,-9.876425542763888,-2.523989332931216,-4.059786551038006,0.7412911052000208,9.674945210378066,1.2922122455596716,9.130309066353934,-3.019967757811899,-32.404837266854805,0.6751159367202793,-0.037388224567388606,3.003461770461314,-6.79214201555603,10.171641064044861,-5.97538757271766,-0.6092503893871689,0.34889785287122804,1.208584463217629,1.296241703303111,2.342320619730012,11.589461752404171,18.78799761744959,-1.0493076955155363,8.870697065353381,-6.293033530225903,-4.950018794103866,0.0,-0.15844851971979568,-5.483256285111795,-7.077581210332468,-7.6596535317515935,-14.652256837019983
1778755641.9099503,12.927034786368566,-7.944837332982774,-4.457465215557058,-9.614320873021413,34.64619085665362,9.425617209482997,30.564138044798558,-0.9229825051763934,34.83474940988092,-8.956999990227368,-10.987327406386925,-1.350361027532887,-0.38130540202825125,14.536463396569925,-2.022659598463109,-7.9675579549127455,-0.010912431213877334,47.3589812181525,67.05864849626741,1.9613226899364382,47.654435668776856,83.22646908286488,27.702904267345467,35.53403511260444,10.668429237444185,-0.8484980960209458,0.0,15.027186658852205,31.2896840901824,12.699285208071352,31.39912336977712,25.340503546743957
1778755641.9104502,22.576671508553048,-6.997491959634738,-1.9631366286299923,-9.630627584788362,45.93302223264726,16.4057817344012,42.05165183008108,1.1980616734431253,69.19664527398885,-8.918584171818505,-9.939156348154796,0.9863782964121488,8.694426271012102,19.32667429167764,3.898852322476093,-6.299259030002957,-0.3271623579093271,66.16652649608424,90.92076664192044,5.140889257020298,62.84058494156416,107.36991075453909,41.4307186516126,44.84402495706309,22.149703794366477,5.45616426259489,0.0,24.141776978652025,49.91678945100289,25.493765712760514,51.03248883714328,47.77692798937384
1778755641.9109502,9.092940765099124,-11.382975749483942,-7.825791996448412,-11.65877116793387,32.53395881661341,8.456405228469642,30.114720316168665,-5.467006000690153,55.17702738626335,-12.360810588041794,-10.632734131335722,-3.0074018711796313,4.59649074933331,11.379708896454044,-1.8528646390221528,-10.111772894917252,-0.19341625724990275,46.10047521046677,63.718943993140705,-0.4128772683646322,45.256145595529844,81.79736195711473,27.959243691993866,27.470947164406315,14.662186493117657,0.2226673863438585,0.0,14.490740517151762,36.84037934582284,16.02864282359552,37.236965746989675,36.242901333181464
1778755641.9114501,-8.774790821287462,-19.67819505619838,-17.742100571667912,-18.629174443474994,10.957247105068925,-7.989671166590109,9.074290087759287,-15.095333948148872,26.967718385523312,-21.537302652709066,-17.35530756568262,-13.291270027813061,-8.069588161250318,-3.227674747599076,-13.792016473154899,-19.202779973485026,-0.038729259776610216,16.94373607933281,27.67691680352647,-11.231499888833948,18.683013306126906,46.98925539532734,6.546919367489303,3.88674377161747,-0.7064048694894658,-11.641996506707475,0.0,-1.8703243849813092,15.018063234612802,-1.69308292101527,12.544207725208084,13.084564704450466
1778755641.91195,-16.536505044090283,-26.75072085369604,-25.364414689181224,-27.475584535328416,-2.7932245551073422,-20.32307273590374,-3.1417410871220324,-20.450900174069403,16.01899680659807,-31.245072236025976,-26.950488509662442,-23.760148647617473,-18.75294419344111,-13.544318146451738,-21.652808169206235,-27.710286015485785,-0.18213054312174912,3.8602245095650174,13.636066505038636,-19.905743926539184,4.469003901633457,32.961963854441734,-4.312501367740117,-8.787700390955473,-10.872333115066315,-21.015048243649527,0.0,-11.656684093194476,5.72761032109695,-11.538469694779103,-1.7021447106604577,0.4276942728286441
1778755641.9124503,-22.14491384788026,-34.742797157759426,-34.050086895538904,-37.96483503325307,-12.649131761009064,-28.945150769018127,-10.186050766971341,-24.888764094919697,15.552057448148005,-40.14203586156143,-38.55009005049557,-34.18609636551588,-28.348564632406436,-21.252007447223498,-27.720418540841816,-36.87043338499946,-0.03214413046813116,-2.7422279812325097,7.517133180722925,-29.08737995876791,-4.25605829924606,25.8475492662059,-10.822330718008082,-17.41341981682124,-19.648424607233135,-29.340750214048406,0.0,-19.666584356682808,1.2001099263598014,-18.330542861293367,-11.776925616360492,-7.911254732584781
1778755641.9129503,-35.902174372691206,-44.107682088752895,-44.94496392155064,-46.98311749685402,-28.706522516663632,-40.60784807036992,-25.608038053376855,-33.31062544765272,-0.5996769045959764,-46.66385338986638,-48.16410200196686,-44.277659083667785,-40.26670942974271,-31.731501363048068,-37.74256515721316,-46.14930963949604,0.4006654611963752,-23.788620023189896,-18.34205659210949,-41.40680522896635,-23.76730140142515,-2.446366958552849,-26.813345612339997,-35.21579645146921,-34.44332561653736,-40.10383121085409,0.0,-34.490388578066124,-16.181381798952806,-32.21375959802394,-32.41218762585669,-26.797985718109775
1778755641.9134502,-53.49964376187647,-49.66814725971297,-52.14743915772436,-49.500088421105694,-49.79035293633545,-54.609996129901546,-48.89556320728496,-42.76950528187586,-38.575065016153694,-48.19649565567314,-50.43676541169197,-50.145192051351046,-51.51983885823612,-42.91874157181119,-49.35604474033989,-50.18855123850305,0.2648451304884825,-58.75135461794938,-63.554384724154474,-51.81849139669604,-53.532277344153655,-51.7792450709476,-51.12904892015001,-60.035628393629636,-52.2452767799663,-50.71615717284341,0.0,-53.058521996559726,-45.61017297760497,-51.36164911298475,-61.87836928589586,-55.122084568479316
1778755641.9139502,-58.35569858031018,-51.775407986078314,-54.76060819784986,-52.18235003378372,-58.679019384049376,-62.5902813232623,-60.91248441276856,-46.262506815101816,-58.33437307731686,-50.74841988067933,-52.70466912165547,-53.69382896732284,-58.35839008958158,-49.99090338046439,-56.35434611698013,-52.67103698872011,-0.27806575988799875,-73.13237753940628,-79.89014540694512,-57.01931166015101,-66.58075942230322,-74.2656886016645,-62.763536618183714,-69.2224880524934,-60.983664330895266,-57.25938032553908,0.0,-61.85890134789538,-59.36575546107338,-62.13340223851473,-74.27063811548847,-68.70681269926911
1778755641.9144502,-35.125314371917455,-53.94574871362015,-54.75070827998048,-63.90612910949326,-35.76734732351086,-55.9274217416174,-42.60048108459622,-38.73491822637839,-6.596544988058504,-60.17116447311987,-63.78789373397324,-59.05014775036921,-56.82808408519471,-48.96138698583191,-52.89845408655963,-60.891420838936526,-0.36624081211935405,-28.45588340375852,-15.108139879525508,-56.768267845468166,-32.378091459375646,-16.16719205861176,-38.39312768005003,-40.75159514335222,-47.36974564396182,-55.67591392669106,0.0,-47.00903711084118,-27.13119517746217,-48.21436621449888,-39.86636824705324,-37.513875189287894
1778755641.9149501,5.6006313263834695,-50.25513855014451,-47.25117783628695,-72.08142738382205,7.524333769615444,-36.35170972489205,-4.91494648405273,-22.8151867161812,92.04078083935289,-64.83477298925403,-70.46204120966689,-59.32189325206314,-43.233983373259036,-38.54978512091626,-36.92328126348894,-64.85803300346933,-0.013572982465799289,49.15216611804247,89.30113596625696,-47.69482546509601,29.203128487915933,86.56526559674191,9.588471115016498,7.05396041302326,-15.480563901075252,-42.32484679844436,0.0,-14.942647387094318,32.78173968885975,-13.457143183619387,23.942300473447663,25.903395810462232
1778755641.91545,25.810207509936415,-38.37208675772157,-34.017845823212625,-61.813978796618464,28.166747158210494,-21.142467988361393,13.210312265428653,-12.769056882644263,136.9316617490715,-54.51966581005134,-58.766841035772266,-49.3356511478018,-26.88437420959892,-28.43514228384758,-20.544566146229535,-53.65454235812137,0.45247680216236486,79.06566178241455,122.04894501352588,-33.57213215194486,53.022016293766455,123.31586160850743,32.9395490290182,24.469407161555786,6.063279905254228,-25.797590282511077,0.0,3.263567003516786,57.641587129834164,9.615762069958333,54.01308545155215,60.92291534097745
1778755641.9159503,7.373979237789517,-32.13601077929009,-29.691777417199095,-46.41897506857548,7.49849387299031,-24.509155350433588,-5.788571689674583,-19.418005242810665,90.9009399919622,-42.6601473364273,-43.40342325544223,-40.573510911275825,-24.889533247395843,-31.90310415987307,-20.747295779900163,-40.850449233530625,0.904898378653609,38.58218031859288,61.164604381219284,-28.4858159889323,17.864541548749422,63.728011234361134,10.78998471777884,-2.0629796939941625,-1.8524073568447588,-22.81756837589715,0.0,-9.477709434521245,25.058701945652725,-0.47650740960704807,26.120090369270105,38.35259046156498
1778755641.9164503,-23.0736798601718,-40.10036811421486,-39.110414988738846,-45.65103691679005,-25.909223790620718,-39.507888835382076,-37.13548521865038,-33.86018344972253,26.36498735191864,-43.989339026639975,-43.53834392220662,-43.452004612537735,-37.8743856243163,-47.15654088599516,-34.97817770113072,-42.52776145196168,0.9294203004797001,-11.889152009683789,-5.0635697166960245,-36.79928797139998,-28.331373307708482,-7.69884972334711,-24.219835197214795,-35.5171297752426,-23.762226966791555,-34.542343741633815,0.0,-33.39559938952899,-19.482433079252626,-25.423878844828117,-16.27824567825598,-2.696722064025473
1778755641.9169502,-35.69272823569919,-51.35584800431707,-49.45212227504362,-55.0640669330036,-43.17889484962006,-51.560023569061386,-54.430598562110596,-40.78051317848854,4.723458136304879,-51.82145928939843,-53.49308163101224,-51.506150654962646,-50.61411745973172,-60.96387145704612,-45.72893087652463,-51.70963554921413,0.43496834840231213,-28.558583163295957,-22.367597642678756,-47.208467659675655,-46.523916270841234,-30.15436863373199,-39.49972014953648,-48.43891973248222,-36.90138812923479,-45.78956882344742,0.0,-45.036739391556296,-36.681571725977925,-39.71810315973263,-34.79056153422437,-21.809336359538925
1778755641.9174502,-32.85398341992801,-53.28002600617089,-50.46927105531492,-58.58801618860487,-46.91107617841831,-56.80554196736964,-59.506803471083145,-37.695583753793954,7.004930026853538,-52.561775201723684,-57.035647522231535,-53.56782779095034,-54.30907582752298,-66.17997565638188,-45.172911866280685,-53.611083306311635,-0.07313707820888728,-29.154650536876574,-22.311281696041352,-50.26583399307172,-47.49933884259385,-30.115699582604464,-40.10008611829009,-50.37308503495235,-39.62693746771536,-47.09572244689791,0.0,-45.46461104497688,-36.11684220665737,-43.45779339898479,-37.82628838186915,-25.206520916364845
1778755641.9179502,-32.282505982338805,-46.17766387312864,-45.211404751942545,-51.620724204262714,-51.9487821488041,-58.83156689080853,-65.0332794274404,-31.920569094946366,-7.398752033504274,-44.411925278616366,-49.39222985441447,-48.226046901297956,-52.70099373790759,-65.1697723037453,-40.219269770794696,-46.07095202208916,-0.3943714374495331,-42.14816003620018,-43.24371407485469,-47.58713823350115,-54.61016977960098,-48.67300266549954,-45.41312463792832,-57.28542754210575,-42.188408064182674,-42.664926971873115,0.0,-46.52360417343688,-41.6245524441214,-48.845448023715335,-46.814532882108665,-35.23652620282223
1778755641.91845,-37.662773047072086,-36.675584337903544,-39.56936555401858,-40.24726760145336,-60.371327573464626,-58.08090115115506,-70.39581606581429,-27.993221049858537,-39.60082666776912,-34.42593524599532,-36.70759410984087,-41.047039914659464,-49.84326853787835,-60.734198034717046,-37.56105434054183,-36.2839098645199,-0.6729164359550474,-64.29221687603885,-75.11397916808487,-43.5211807577653,-67.6839790745482,-80.34857133691573,-56.906247040518544,-65.895163956917,-46.797398669181696,-39.11900159566443,0.0,-49.789487324404355,-54.89129866359686,-56.1271328407428,-61.70121890991438,-51.55048231345647
1778755641.91895,-35.67386512970211,-28.58359008739985,-33.82027914797954,-30.847412424296955,-59.38713903672137,-50.143529329999446,-63.21221501693939,-23.268457520633557,-54.59727242936775,-27.95475553804807,-26.868183662403943,-35.07637741456302,-43.46226180269186,-51.321876334947746,-34.4482291104215,-29.96170105817913,-0.6278878983310024,-67.88352097851784,-78.45049031455717,-38.135807228608535,-66.31957629336904,-86.05897878228694,-56.86779264962279,-60.18549611316621,-44.93813665848386,-35.94210907933775,0.0,-45.74932382906292,-56.17435064132184,-53.294145696119934,-62.85121900784419,-53.18576339139087
1778755641.9194503,-16.049996210865853,-22.298577337943236,-25.89098235496154,-26.06957827511488,-37.60603086832887,-32.35023435747835,-37.462612913720484,-13.372509099471996,-23.95466483020821,-25.038742478799897,-23.50760069047347,-28.876986145750347,-30.60307851407002,-35.47583708462174,-25.31674578602138,-27.073922481282704,0.22692603685406523,-34.28361806980714,-32.288144873244185,-29.80974987009676,-36.50037209869279,-41.50250593693902,-32.1933106030916,-33.088639440816124,-29.652156682328773,-27.967765339937046,0.0,-27.90833609139498,-29.110420590396124,-32.67703045752473,-35.142779125697885,-26.578918428147446
1778755641.9199502,11.883144220558552,-15.430691294263335,-15.013118115646526,-22.450608581365127,-3.4055675924605797,-10.104363656113279,-4.878565044194197,0.3344992493142259,34.73472506836596,-20.571063317084114,-21.7520451873287,-19.81875627296903,-13.082408386811538,-16.4205049809892,-10.770312544133999,-22.000024350216783,1.3174130382251596,17.76093733985291,34.03180655010213,-18.118600923730284,7.094937905424225,26.47265239835482,5.062272484300581,0.9426103083769917,-5.736228865363102,-13.62758817822692,0.0,-3.482473395032006,14.363927353459836,-3.0541376662385944,8.86985323461684,14.432464053589634
1778755641.9204502,27.831591052049585,-4.070424520966647,-1.5063354062461556,-11.512504548249463,18.63937509194032,6.65107374204306,14.164598225804111,11.21811696235507,67.90007277552179,-8.108566588370973,-11.884805264581637,-6.025528466135002,3.8111222714937463,0.02337674150961265,3.612427158422429,-8.696803505360476,1.3475847805633967,45.3665089272633,64.23198223476153,-3.6501531792786084,31.51302926034971,59.07152971006755,27.563528402910958,18.770488298778464,13.77264949500409,2.032312920657496,0.0,13.146304506697845,40.57980362908376,17.56128406473376,36.26864332276165,39.832156366511924
1778755641.9209502,24.546637425639915,10.527664944895978,11.814125450137881,7.839768767877563,15.945874407812589,13.075346478192632,12.090619691000924,15.058054316895396,48.290846053239655,9.975581669199316,6.284228039772476,9.809320923259019,14.6773162270571,9.462591294772874,13.287373978164979,9.768237205306388,0.33262744443279185,32.29712371485084,41.085208186874574,10.137593811701818,23.586120199689585,34.07345055092676,24.601638756135248,14.952447411866538,20.229696172834966,12.279117021002723,0.0,16.21639322388257,33.45220250697055,21.092764145921137,31.45780873003041,35.869391273351454
1778755641.9214501,14.166954177656088,20.786317188846475,19.991247192036386,23.602614084597164,2.3274854784000865,12.335880728451022,1.3367908042459997,14.289336584493647,8.135830967298096,22.522845350859946,20.68061659931146,20.005986939436372,17.4312722841447,11.519605327727213,17.605889782121583,22.38099503139489,-0.5456791540744653,7.587514858842384,5.33497246042651,18.12108905449008,4.705149271879523,-7.05007904010434,12.73366118805178,6.544552024486759,17.232910407018817,15.663220550537972,0.0,13.09960374272948,13.666802768884764,16.355654858644527,13.24098440610843,18.385888597011245
1778755641.92195,10.185351310347139,24.77409231086735,23.108864320120663,28.877238419503335,-3.390379763510144,11.838162255256822,-2.05433527290242,14.769426445156467,-10.902782712940946,26.655906338624167,26.13439606802838,23.273569680321902,17.17021700016876,12.331070187800991,20.637247744735117,26.615872176359407,-0.8738954971635273,2.245694325410311,-4.782932036641894,22.01618112279583,-0.010512226693231045,-19.81686134545656,11.4599514783065,9.420346286774905,15.877381952945797,18.59085411647123,0.0,14.048910053534913,8.20917537954437,17.09356150428389,6.344065502313704,9.948937582552402
1778755641.9224503,10.151285578802524,29.34145724691431,26.56260007010545,32.69729587011925,-3.0514498097782092,15.471683033558293,1.776461034208079,18.223926329441642,-16.846823176861456,31.572825321378076,31.739904823110187,27.770839405096886,20.514732515404116,18.681384355540946,25.896889937247828,32.03199926036313,-1.0314371168182774,7.097033765569591,-5.195949534044712,28.450147356089893,4.670582122578183,-17.470450349557897,17.45869103857517,17.12233138097673,19.71053517585307,26.560844013283567,0.0,18.841854153552877,12.94331403428352,24.258556890756942,7.766877926242542,9.34591016972668
1778755641.9229503,0.8348875046160484,35.667224052980174,30.185364738593087,41.612927145298684,-12.710737893358676,17.534265951391568,-1.354955458975271,18.955438293783047,-46.31659359701209,40.38196654970764,42.327957826919246,35.887979906229944,24.3512706118611,26.68316173206108,28.368336832737878,41.77613128351082,-0.9952000295896076,-8.873874996278863,-34.55143201907054,35.34940969007707,-5.428168417612799,-41.85901876285481,11.564385456984649,10.849966839354542,18.44748127755515,33.29392725998127,0.0,16.487933975146976,1.813250270884271,23.760341957058902,-5.234511760008344,-5.0312861101528625
1778755641.9234502,-17.187293167182947,37.244196692556706,29.52110609028741,48.75067479977629,-31.62311969011622,13.443991067883955,-13.820984972666537,13.728080131487372,-97.03932409749876,45.49370971990424,50.38136475868674,41.073273730391556,23.01738752065879,28.365798219518418,22.65076981360116,47.164075723208285,-0.5121231195888428,-43.76191333944405,-83.1269314877804,35.912669097525374,-30.461162083222344,-87.51141177550745,-7.428858120808417,-7.649525226964216,7.075171357120553,30.41092441357622,0.0,4.873045068981782,-26.98100060791558,10.3223879172646,-32.65418363846307,-34.832523166709464
1778755641.9078908,-22.08154273338544,34.25254556311234,27.658685979163884,47.75828438564942,-33.99026906622086,13.118487335875606,-14.688169534468855,10.750195556109803,-117.08804646911256,43.38842044385726,49.94826517823652,41.51280410782822,22.49533172981374,28.048034486687385,16.328446135466457,43.57196783784306,0.14105013207275066,-54.238927013296376,-90.8953568672138,33.611988679035306,-36.33039083318068,-96.14683426262627,-13.60015314340244,-9.849651442566543,0.743993906752091,23.91733664209094,0.0,0.8458199802537468,-38.51966764285972,2.3566309824279443,-39.993824832855545,-46.49786052058807
1778755641.9083908,1.4000032686499266,33.724850494478034,31.754018526231903,42.13055302532278,-2.2296240313599998,28.78857807371889,13.043438906754695,19.208334251929017,-69.40230206949542,38.90711255468393,44.44076300856211,41.79310544131937,31.99964109946727,36.5515303445706,21.1713333160315,36.84455821674935,0.518520883153729,-12.97129843961955,-26.704582815354307,36.71733931489691,-0.1193694740074047,-34.48478142373389,11.279253618381441,21.34912713986028,15.08028166566597,26.15728734291226,0.0,18.323430461357745,-7.088358891611464,18.18986450798353,-3.403941647677576,-14.145945799636765
1778755641.9088907,39.32634311408732,38.936931116900176,42.259974457851065,40.42143248772612,45.50677655241312,55.00966530691036,55.87295970187062,35.22643380632596,15.13839916667971,38.33525152559152,42.033774678551715,45.387937451217596,49.27633502214301,53.79848209160137,36.86062452509137,35.74348860146197,0.6930391198028216,51.340327503751716,63.95358774672247,45.475815382187044,55.40671756386567,56.290818920577834,51.60713811791963,64.63120186016019,43.080280744980556,38.70376270949493,0.0,47.72066448683795,47.13125257641697,50.1223672779759,54.695340012353334,43.047994775097656
1778755641.9093907,60.61795645003969,47.82132196802518,53.31912859028641,48.37784941606081,71.07691248465005,72.05188353922533,80.81478831159437,45.44330311984289,60.27307881808422,45.23640647200825,48.876008476370394,52.97243811180513,63.15458540756746,68.20479415468424,51.3709386569906,44.3569280161174,1.0289855847440694,81.56481778735676,100.73626840401715,53.90006262097458,82.47165808607807,97.59600056874379,72.78587615860555,81.76652727754339,61.5133463424856,52.207939840481174,0.0,64.60241993301075,76.78536488030325,71.25234175900339,85.67888893681591,77.51405924257179
1778755641.909891,47.766591202206634,53.50612247312498,56.91272294166831,60.129116723297486,56.46082839871444,66.81243050042902,69.3124360113278,41.29418594143946,25.68751025300188,54.5904144362849,59.902195295143876,59.43623127283052,63.71712006786704,68.47005850119896,52.324445224287345,55.2328266920854,1.3956611887542347,53.06215836068678,54.033055739959096,55.36898439207078,58.824089447518034,56.029274504983036,56.56108736652101,59.51956002378443,55.00410142407197,55.21086749847937,0.0,54.61988715066683,57.11078120758632,63.06489140232549,64.86356714709873,61.25718662105651
1778755641.9103909,17.751850186436243,47.62787483197146,48.016762706946665,60.21959069083634,24.9776754164614,47.023074217899584,38.67982127940611,28.08518905173433,-38.37806033004222,53.45201114091268,59.7671834556115,55.50287360015149,50.65071994683558,54.11154562636986,39.059709930198785,53.626970978374125,1.1884128117591537,4.8648246988152435,-13.977618086255985,46.63838553429924,16.49398425213108,-10.81626818926618,23.63597142384498,25.6326395119317,32.746728066421035,43.97854725310239,0.0,30.669725481100688,16.19246186889514,36.55609384009621,21.688701975680193,18.622185865013574
1778755641.9108908,0.9734300207812684,32.252320804960284,31.901392327232944,44.341724611126885,10.357302053224267,30.72983713267851,19.680041058292638,17.67658515043587,-57.31397923228944,38.718256995493654,43.960882391484226,41.218614007025785,34.292724784992174,36.26536249762011,23.675245953027016,37.62833534774826,0.38988600354880004,-11.746116899231271,-30.63023996870211,32.598937717344796,0.17823064458331134,-27.832478828184612,7.309015668707951,12.103189308369487,16.137618953692687,27.74521216076533,0.0,16.48758936581529,-2.08423422010265,17.834898707508884,1.453147072024048,-5.1995463359124425
1778755641.9113908,-1.0721801328625118,19.688104851264555,19.504479060246624,27.907731067990877,10.915186040720744,23.2706414658556,14.834788447995221,12.19359758487751,-39.42991451557368,24.2372746863157,27.919014343413515,27.82898404304927,23.41501071038934,24.53923955108462,15.366455153099958,22.61162533599244,-0.25298175318058774,-5.288832080170213,-15.491741403368936,21.810096849171032,4.323043091251274,-9.79795132791662,6.5044979610772256,12.205116387244715,9.920612570370817,17.394485922960058,0.0,13.772524534646653,0.31971140506217177,12.165132483384621,1.9712121055625045,-6.83987831140848
1778755641.9118907,-9.287579882699069,14.885129454423947,13.264793915295026,22.64142410141207,2.4052590453811686,16.36954937279996,4.634802607834744,4.510259193663607,-45.343081607991365,19.73792291741906,22.945123829146937,21.285770172945494,15.748682996579298,16.81751488578456,10.18703435480425,18.059906715882192,-0.3616859294840253,-16.69282648080617,-29.717823816228815,15.598534170198931,-5.986107753683935,-21.044559537782003,-2.983453202577814,1.7657380565035021,1.8685108829419543,11.903989626158065,0.0,6.798879118963581,-9.405951798736952,3.895991694375062,-9.681806461272565,-16.899941972904106
1778755641.9123907,-25.477542958565195,10.223108502974535,6.894026142773073,20.374823636828484,-15.97257355858515,7.115900857555879,-12.183542281866602,-6.3501545852877,-77.70638212315882,17.30608445360513,19.992551150335267,16.215157210917575,6.388704663251587,7.485199892423676,1.5736198620665793,15.930701945608034,-0.24081475277553083,-43.15066713963501,-65.05776513457322,8.842940664451495,-29.983101022889713,-59.11909706185334,-21.245218273221994,-15.649533150411232,-11.289275785949679,4.621565329064141,0.0,-6.344533128263732,-32.73828716411681,-10.83297912027288,-33.05174672725939,-39.488534827392805
1778755641.912891,-29.925080635764417,0.509261377876335,-1.3837148142707532,10.183066810850233,-20.818411839849013,2.981379797118907,-16.00736194901992,-12.479004458079585,-81.65593859574604,7.45354771382925,8.351656157413677,7.596991484416495,-1.5641359437681066,-0.9652797330141957,-7.237033746181854,7.3120082262781505,-0.04158156075168183,-43.73570775409956,-62.134789317775926,0.9134920614097244,-33.875255649644636,-62.638823631812436,-24.29761235932934,-16.386381492764595,-16.823208923911597,-3.457477699028529,0.0,-10.676531701456373,-37.95128087891351,-16.898431101518717,-35.342211748120114,-45.28726078170045
1778755641.9133909,-12.599027501215142,-8.289374246340955,-5.351362480942007,-4.1820236838346565,-0.8568471114720889,8.940012686361142,1.7512989418791496,-8.479841592951246,-32.52853556348917,-5.332029176710197,-6.478385889655511,-1.5706343418273638,-1.096648103962577,-1.5477162592716132,-7.6140708468616225,-4.076731079566711,0.37563429521335157,-2.9075142116993584,-3.2842234010884876,-1.8980794167496795,-3.0750388888985194,-7.773767454512459,-1.7043732263421771,6.8948902379634625,-4.764520953546442,-4.7092024991122905,0.0,2.223650861700431,-9.713109712311025,-4.0127301949348215,-3.3465804188498818,-17.609058172942603
1778755641.9138908,14.248475791401473,-8.457201759360494,-1.028655748405195,-11.41347134790026,28.02254242569883,19.86852671256028,26.146609165147645,2.2610624379094246,34.31647257165271,-10.260742652286842,-12.352767907886966,-4.844014192589744,8.018882149696946,5.780366639756033,1.8619067528252302,-8.95751432070387,0.9456561148225129,48.714971898608034,66.0235129909434,4.195797451261568,38.85641615426075,62.15026799916757,29.62302933277676,36.331849267942516,17.53013832489676,3.905241261243102,0.0,22.878105006518958,30.29378485723218,18.67459791153829,38.74121223657221,24.73052772689994
1778755641.9143908,31.676100532929095,-1.0146692530341441,7.3587895966212375,-7.45486569214588,43.20409256472332,26.72023086716869,37.30478344918406,12.261885661828943,72.0086119410618,-4.500569292727064,-6.8722872424483805,-0.1463651177556714,18.056659686101167,13.13452948026431,13.556353510561364,-4.209724841274134,1.361962089599592,72.24011031945648,94.8079791820294,14.50756727167601,59.53854992121903,93.3652395585142,46.42369301080446,49.729604344362045,33.14461950760012,15.92985928158809,0.0,36.10913025257593,50.783454977851655,33.2852966932999,59.92723571997721,50.40205542953774
1778755641.9148908,34.83624237047015,7.8783058961627415,14.435960271283232,2.2064797439926336,40.78495266791883,26.57391162720239,32.293103341355,18.173646065959392,71.00509232194753,6.048842695615703,2.803647062533385,8.458983508712885,23.166033376304057,15.404153503947015,21.143375394612175,5.7190990974786375,1.1364796779306832,62.28805651045927,80.44614205293045,22.465258908194077,53.250592711260246,78.80224539440113,44.219594533190595,43.76306300430849,35.4192383696945,23.775314061879076,0.0,38.09096838370815,45.698993599583325,33.774396004784144,55.95223881901833,50.65974327067328
1778755641.9153907,32.510859625395746,14.055864592933933,18.71597711104069,9.35177334273055,33.80296175505209,22.96980221183402,23.249556895659467,21.388595864001456,56.517591117703546,13.73668071942353,9.063200598270324,14.427725218168506,23.79766099404574,14.316915766606055,24.164059092860885,13.259481740674206,0.1358002142135111,43.55053924523542,57.88083884322216,25.447214714839255,39.25210027623425,52.15770674202664,36.19755592349128,32.92921749391168,31.673998362612753,26.10001894872295,0.0,35.80034883259522,33.88252267245622,28.633758142117685,45.24026543231874,42.052947741320374
1778755641.9158907,27.627392286971112,13.021621032546154,16.379921214566114,7.0528295398252,28.558360367672783,15.976016393231498,16.088616135751625,20.453560671211783,49.677028019617545,11.684329007966532,6.237395066291585,10.995249822957998,18.81890394533521,9.575665815271885,20.938027767053253,10.609655462461209,-0.8246253611309091,31.74524346817342,46.89264382730606,20.09675072428701,29.076586506131253,37.72508119401961,28.966261506163764,25.173105878000577,25.706514598713664,21.798452769636583,0.0,31.073840316039245,27.22014958806701,21.738481006644026,37.19454751695621,34.62681806022832
1778755641.916391,15.60302733490152,1.7314162644388644,3.5283058580135767,-5.2815378426958945,17.81891471793305,2.3457015216998784,5.29798092635795,11.805846023576335,45.40918860644092,-1.3005412643983258,-6.267952984679364,-3.3354543297629307,5.249782000926093,-2.0933528581865812,8.983939691843243,-2.9842422796420776,-1.0252564419899906,18.18492494488731,34.14377814383398,4.241172070915347,15.24248024871325,26.615082538790514,15.33987009158789,12.644520524016631,12.527889268241784,8.457761128804378,0.0,18.26660208158355,17.638315472240905,7.205599281452546,23.460076177079266,20.007844032129547
1778755641.9168909,-3.1680211932548805,-14.274242575616015,-14.203844422385622,-18.9323978340341,-4.622986595301649,-16.031600213541033,-12.892120642784207,-3.255359271617899,23.442811605151846,-16.631282567001236,-20.595093175748453,-20.41275385051736,-13.82172005013272,-18.72688321209681,-8.173458326650744,-17.809210075959392,-0.8392736917818728,-10.050731400973499,-0.7225994700840113,-15.796490524776042,-11.079161773996242,-3.6835472008390577,-9.702351456872643,-12.82753360942491,-9.555352850947655,-10.41229022537607,0.0,-3.775101636772515,-5.621041517982683,-16.4442645342575,-4.237417860104622,-8.95762554894153
1778755641.9173908,-27.014022824393052,-29.86776260047193,-31.007098497008673,-29.779429057145965,-36.505185517593944,-36.65646147735093,-37.097833261995596,-22.21948034693637,-25.294323885789204,-29.49835141169433,-33.11049828370073,-35.17069789944627,-34.79165473329971,-37.23974732747074,-27.50813520847177,-30.090010742087966,-0.5935383664432099,-52.09579291236381,-57.78860652967639,-34.652158504902935,-48.701461706073324,-59.22455147127753,-42.19142165894404,-48.37758005828206,-37.78335805993102,-31.12077081995217,0.0,-31.495499595783645,-42.32185939994806,-44.98741125904025,-44.24455868130778,-48.81542278520259
1778755641.9178908,-48.28484797340494,-49.10784669066506,-49.51677519632224,-47.864281090928046,-60.969898831466374,-56.53402938884885,-56.02256436595132,-41.97503216676599,-63.70389006491809,-48.324290262045814,-52.901252450483575,-54.09510869765572,-56.47323528581786,-56.60231901697748,-49.30235071605828,-50.251127466178225,0.1518837693385966,-79.20849687426731,-92.0663447667695,-54.73079586976486,-76.13150966878567,-98.14742323231266,-65.46029894059599,-73.10257778826076,-63.37980804375541,-54.306104877291226,0.0,-55.50798536042848,-70.4308712448016,-68.81710126535668,-73.82087873525937,-78.95895237255387
1778755641.9183908,-44.17937773271992,-69.2241218414859,-64.89445113403157,-75.43472042799232,-51.01385803729461,-62.54868853786639,-47.31916461448313,-51.20748705578046,-28.388737545701836,-73.93841261638619,-80.52518593746817,-76.10163141921049,-68.82772254145641,-67.78759612631072,-64.23756493659276,-78.33118274500755,1.023598074488713,-50.75462941110666,-44.29247091514534,-71.64285995941238,-59.71506499820341,-57.245566112885335,-54.90395397392281,-59.58365127756439,-66.88591536804276,-71.55149552180752,0.0,-56.97418984713501,-55.07230049336816,-69.00561141408713,-56.15282276107534,-64.60997612384809
1778755641.9188907,-10.870293546253068,-74.03259492684887,-62.93691017912389,-90.86850744983911,-10.699015675134563,-47.34417025718955,-11.8159968088905,-42.23378067758619,66.72014308613639,-86.29979084379157,-94.73686908725696,-83.77928287212187,-61.41809467356567,-60.87328151236968,-59.56094893285222,-91.9119248491828,0.8535223541876313,16.292668097839407,53.5801174579699,-73.54029984008308,-9.0321704921346,39.576233736257834,-16.928955520706396,-18.964470574812573,-43.66171212252149,-68.7630783453718,0.0,-33.73975042029864,-3.2304342275807247,-42.462118928516006,0.8111693777238977,-8.838115207702087
1778755641.9193907,15.054976482991398,-59.57014421288667,-45.73524328051443,-78.5699356461576,14.460106454659758,-28.626598961536672,12.652883120056263,-27.694944835698905,119.59426053049297,-73.13774977541642,-82.26309460844821,-70.48269295738926,-44.11733684063132,-44.98715229902005,-42.69109369842979,-78.65997113868313,0.12764667322533446,45.81664367791862,90.20667667757408,-62.24036783515493,16.066188986255224,81.55298714748278,4.024763930201495,0.26655862527915647,-21.705168359047363,-51.14546348319287,0.0,-15.365162514604341,26.73847477439308,-18.735759662238255,34.224167817335136,29.13342722117758
1778755641.9198909,8.394592668674871,-43.58370840869256,-32.7906706432499,-55.62247975174675,0.9872366108619267,-25.297085631032846,4.094292533355671,-23.986057761629212,86.6519007428424,-51.601210472900775,-60.185460378335655,-53.46673563438518,-34.73364038936314,-37.60221007014775,-33.133205214989836,-56.78389990939579,0.35268648082768905,12.369751526586722,38.39858549089238,-52.38594464407857,-7.868791884002494,32.6978290973836,-10.948332960730202,-17.26932060307421,-22.897321593339672,-39.187322771579595,0.0,-21.559862416954825,7.831521178724181,-19.87263781151302,15.984639584653603,15.400803429844153
1778755641.9203908,-10.890210101201772,-38.98752856090039,-32.593959189445194,-45.655951276896005,-23.168492492384704,-31.365313298232127,-15.467241716231728,-29.478761834757353,34.493488535646634,-42.76834593557938,-49.608748354713384,-47.767380487630035,-34.36981363527678,-39.87142932747729,-34.403985936959415,-46.64900980520344,1.220378857511856,-27.91457701892727,-17.13550962748236,-49.819508354138385,-38.53324103907342,-26.25845703987447,-31.78960173964063,-37.92276145518032,-34.09393881770145,-39.579412709840206,0.0,-36.18476412057954,-22.217021096951363,-31.80670357157994,-13.941342320079748,-15.136357218536107
1778755641.9208908,-18.01888014977786,-39.515914934833674,-35.611471171296174,-47.247578184410585,-29.508030364198863,-32.271775843306045,-22.183109529153132,-33.271286722155665,20.39093258490574,-44.60134559727522,-48.44883835214398,-48.21809497517111,-32.82140892061157,-40.77817711787735,-35.28242939319256,-45.586222361458745,1.2868135679755133,-33.34485591697731,-23.581055557573205,-47.999473509189144,-41.9495982091119,-36.5860939634195,-33.77704772111199,-38.201306529551694,-35.9563390866829,-41.65018201559021,0.0,-39.537209392791574,-28.887400439757755,-34.29927188873161,-20.973720521993112,-24.290517775467716
1778755641.9213908,-14.45197494501248,-34.53855886488174,-31.88640501941123,-43.990267626858284,-22.539608359380118,-25.943145875367893,-18.58786661181692,-29.794667053854326,27.49070678924482,-41.60016035731629,-42.180964755611406,-42.70026984486212,-25.438584647583433,-34.15182576222165,-28.9404079564015,-39.77245947933946,0.47663733760220434,-21.584853971935736,-11.401086063989384,-40.36170719286071,-30.39523798083713,-23.85019589395914,-25.31521459701729,-28.048208867151786,-28.485751318664327,-35.84089432559376,0.0,-32.10556319127814,-20.725241070177226,-27.05111655656069,-14.575998536880057,-17.562177239411486
1778755641.9218907,-12.576016923285652,-23.46417049448612,-21.926198571541523,-29.860096710149328,-19.3742295862404,-19.23360714898712,-16.8740534693363,-21.133054518194253,19.83742098064191,-27.871144551262454,-26.94870093355129,-29.02161732146881,-16.307505608649247,-23.226956206607927,-18.666885209437282,-25.31555504984095,-0.09920430023558542,-21.857543924535538,-19.003871444562026,-27.999143818216034,-27.30711666642358,-28.34518856410007,-22.294701524584493,-23.410725185386788,-21.679009354393067,-23.72205035324078,0.0,-23.709528567693024,-19.035756713452244,-20.37733687965366,-15.165723661206671,-16.76213171266408
1778755641.9223907,-17.42384387072955,-14.410428848496526,-13.512609863987699,-14.749437864401994,-25.085315828707067,-17.594007761617352,-21.827746971001478,-15.051538651254965,-6.726476226185405,-13.165887544551026,-13.433472815138206,-15.870278140884196,-12.019665410944272,-16.344818286052583,-11.919831033235518,-11.796156137296444,0.04112274135670172,-35.85795251208924,-42.63106013302879,-18.25397411683059,-35.664653288508156,-50.292519670366744,-26.84892642018501,-26.320331127910332,-20.889663082144814,-14.528399093545332,0.0,-20.640486168229476,-27.825088223732386,-19.522865016219082,-25.230698432410787,-26.444435624171444
1778755641.922891,-22.262579151727447,-13.372589125482895,-11.61256661676846,-10.409424857314793,-28.069800522379623,-18.871436242035212,-26.41943342384772,-16.055841207999183,-24.283250116326276,-9.282770218783368,-11.643179689907805,-11.71852566394637,-12.828834888999717,-17.246351422792294,-11.593946809366388,-9.017111699026579,0.23735353669611342,-40.55282101179681,-47.986219284423264,-15.717107077976726,-38.22631571692254,-57.330673219930006,-27.570723882378303,-25.046346939137724,-21.072119195555697,-13.2840405891212,0.0,-19.86282695484894,-32.19058123886096,-19.16808891345585,-28.975522044490987,-30.885196518317706
1778755641.9233909,-15.295129349576644,-16.725645314202417,-12.066755614434177,-16.093102083636595,-13.899581380599775,-14.286168860175009,-17.612860146113185,-17.97016471799038,-3.922928921458649,-15.594673184226425,-18.16677169116074,-14.535576310029665,-10.779065067512088,-18.94118723022916,-12.21380726926902,-14.752470962650815,-0.13625149478108142,-15.412361792892582,-9.94003675635264,-15.781217370075602,-18.439715950002277,-22.972361929323124,-12.57351488403624,-7.691765595182088,-12.43444323796622,-13.47690676637566,0.0,-11.977173339921684,-16.172269467742463,-10.146089960180216,-10.2373410601144,-13.29427183794308
1778755641.9238908,2.74937960986153,-15.969233064011107,-7.592193062315434,-19.287612752961863,12.284115176973753,-0.8546590842439608,4.158061662889961,-14.021670813886253,42.162978189237336,-19.95927143829095,-20.07749861289809,-14.249083013482844,-0.7616907277181706,-13.577214700332627,-7.457687817659468,-17.59531129224259,-0.5282336553695096,25.477762198533014,47.30130755450431,-11.35476568502872,14.307326731177017,32.97867776033353,11.778038690990938,18.0897575651016,4.271238327597682,-6.708810050078582,0.0,3.5505301276121113,12.561328695644969,6.701535666659349,22.6451238948978,19.69221348306418
1778755641.9498281,15.30358086118898,-6.784856231428961,3.2321320629688057,-8.984199257876405,27.45866211043277,13.441548835167414,20.703975377287648,-6.84905726640942,63.9542863220809,-11.615726187681888,-8.166576692726723,-3.9591424965291298,12.57023958544695,-2.9506656401058926,2.2091246770325492,-8.439692732824923,-0.25650239558987914,42.40424460036382,66.83793749216382,-1.471315155563751,30.22235300641805,56.07535445381132,24.193160210277526,29.340061293150416,16.536530641541674,5.825713872094339,0.0,14.288532931482205,26.807260751549208,19.696604694784476,40.28677976770799,40.457765778893645
1778755641.950328,14.977405350239538,9.434072315723498,17.27196346553355,13.707473368269602,23.774516664500045,24.19776892563353,24.086776530621783,0.42982193626999626,40.38442728939321,8.522180850486436,14.873967481769245,14.862436357344198,24.564412384791645,8.983424361581331,13.880422501929454,12.290028559628379,-0.1833001854735083,24.35815926264427,35.03361378547994,11.824233049804324,20.456338267326764,29.361179777929184,19.537909354182528,21.662721321274326,19.993112162000017,18.969847957463728,0.0,15.378855677610577,18.90397217149757,24.17709208299389,32.44393572064335,36.75786281817648
1778755641.950828,13.461284425350273,26.494389550995045,30.281212101386163,36.17110529080304,18.45276409802061,35.17470807081622,27.359507008678396,9.710475408556356,7.74895014512551,28.562317584792883,36.2323928724051,33.89957909055037,35.585936704825734,22.5314603799391,25.50417860114983,33.66535063792449,-1.2847676095661926,3.786058718974997,0.565122647932543,25.863679841931404,9.0929389977917,-2.2358040412670483,15.42206717090101,16.251668957082934,23.24969607551332,30.51806835038869,0.0,17.206956909267404,10.828607818238625,27.764965148887327,21.474912074261077,26.33922948954575
1778755641.951328,18.56005789795242,37.27174838410942,38.28491824555196,48.00919345999477,23.602654055400695,45.98754124223292,38.319928355832744,20.00236163855792,-1.1752999524785042,38.97417401759147,46.31456515025035,45.2386500421388,44.56835499500816,36.3335521347782,33.97913713933843,44.877821704069085,-2.31938555647226,4.411968887654712,-1.2308920787799598,36.146596674501986,13.13226508583957,-2.4534641381201157,21.555035326575013,24.423690624871366,30.345694611312492,38.6710781399211,0.0,25.421081122488683,16.383717290154454,34.57248029666538,24.07132142713381,25.782071071124875
1778755641.9518282,22.737324850000228,42.794800531484846,42.47089720830816,54.1253509096064,29.84381194482432,51.5739626041963,46.771344277617935,27.35685148644783,-3.578123148216754,44.77304962594553,50.95049424219248,50.95903217637002,49.64887889042958,46.46626890768075,38.4284962493905,49.640399449328946,-1.5369026385553843,9.11526321978884,3.739364330251502,41.9221469919357,18.840555433985607,5.449832092032864,26.369591806028552,31.231223163890114,34.88825669593923,43.16752805148766,0.0,32.0470881695119,21.483936831673223,38.58765718497254,26.79839544913199,26.791392469985855
1778755641.9523282,16.656578735404075,48.922282532206225,46.7534238305463,64.01054759412389,23.1793994401818,50.02723891920192,41.519088834294514,30.41757724069359,-31.79590272566128,55.033261438121386,59.98319431495284,57.60904198412469,50.594103047583744,50.56046228546071,40.1826121488888,57.76420765475709,0.25631031731085935,-7.920268289359749,-23.600513750311116,46.362265999153266,6.888443037557499,-17.78282496211979,16.632593536684393,20.796371366011858,30.30395009671213,45.559112484399186,0.0,28.762065428602206,8.290392473048604,32.86998087511199,10.373665066516491,12.052214717731196
1778755641.9528282,5.3121659857120616,56.3004500719142,51.56578838645867,75.39820327765544,8.501577356104226,45.82992065216068,28.968003186292467,31.681049729120605,-76.79902802766834,67.34110522751305,71.22595467013583,65.13583481674752,48.901873060043684,51.0671529339734,40.92636610880793,68.73358332497558,1.066489845227602,-35.99907315726757,-66.7417699500844,51.176438392402524,-13.159378058616976,-59.540468180591475,0.08260288408070227,4.258912064885075,21.671796708914933,47.09254440409237,0.0,21.202040391914913,-14.385611153833672,22.368907168644526,-15.304330732008854,-12.665060678042108
1778755641.9533281,7.5258028276874125,62.39157534461997,56.47545504091221,79.62079891228365,9.530317497712522,47.90114750222145,29.677090609598604,36.79835520627309,-88.6013443223325,73.11578252926894,76.44459002140805,69.74045920365724,49.60528610174781,55.06937468388571,44.89503096904833,75.40898524336778,0.8096526332632158,-33.54601873545854,-64.72039449030605,57.1859265604173,-7.723859742545719,-61.30435062471546,1.6657262274491949,10.653578088845595,24.811138857715793,50.86657542151071,0.0,25.665786885327986,-14.822190975010702,23.871089141944697,-15.855928802297406,-16.07410298812935
1778755641.953828,33.477076205310304,65.43164231317394,61.42640376752682,73.40505284068011,38.414262794371744,59.23167956832971,52.92767235532503,48.651049251542055,-36.04985801179469,69.07504911448018,72.35342849536747,69.32266189278377,55.67105307159817,64.87935796977138,53.86298712770057,73.6679809934231,0.5869041570186921,18.002873414730583,6.950930897362367,63.643141279606006,36.709175835541565,6.417370372875437,32.09396821015875,48.177066270326584,46.17090785517776,58.60410308990973,0.0,47.664247977566134,22.429804816589066,45.13974174337961,23.61286212473789,19.186440479052685
1778755641.954328,68.15852090831375,65.17870823681433,65.21247971211767,62.927804576631196,75.41565235015237,71.22485640627963,82.14779063063439,61.88107902564486,48.09048953151868,60.779035879259936,63.59035347781486,65.04056967591136,62.90725054179469,73.52706747210172,62.908513882317564,66.34157325247241,0.40425617954214216,83.769563858987,96.6960824249128,67.59799747441213,90.2091772324657,99.41562533748066,70.57934055511184,89.33179913763566,71.48821150977341,66.27573127140722,0.0,72.16456789491022,72.57765846944648,72.30849623411437,75.34121319371636,69.85595060419317
1778755641.9548283,81.88066844450928,62.88423619159659,65.62063514796158,58.23915897702101,85.92000881734829,70.81240655410785,88.59359256708012,65.60501222449656,89.33729588893203,56.837915328761355,58.75090366044716,60.18478891461445,63.710920910313675,72.3250742923591,64.8829034370687,60.519107862416554,-0.43193789819517836,105.11701555242938,123.65190323353588,65.93216288169535,105.77456290773775,136.25075987150439,82.41338514123325,96.55945748943347,78.5324273588044,67.04087908288531,0.0,77.27449007433978,91.32531613435735,81.4495174731257,93.65390275964863,91.77647643754077
1778755641.9553282,57.830257623276836,55.68471628685233,57.23189137346937,57.156456521617045,54.895135281629486,50.23552176169966,58.37782152069567,51.630717229706136,47.39651237035256,54.67114762500783,56.723363744746564,52.56334314715994,50.50453672082625,56.38056602225706,53.36749689175213,54.80384342452529,-1.5578215514792297,59.50549646450968,60.885718015030115,54.3389990742166,66.16101771293812,81.72903089703799,51.91142660842255,58.62787252118084,56.362303165697334,54.401942656099926,0.0,53.77490105716675,57.98120932387852,58.92038119400473,58.940959566570704,62.11945746448155
1778755641.9558282,14.820286835413372,38.36720861223337,36.710802244253,44.92969684289832,7.271829301581714,16.893315094643462,11.75618953250227,25.45062475202562,-28.066729205027265,41.931809782467134,44.871981765624994,35.42714473973594,23.280295393383422,29.34310340665424,29.408834398343984,39.15918996830039,-1.776121926023444,-7.188279504586468,-25.08002123746922,31.952141484939872,8.220390382471491,-3.252216812714457,4.325223498386716,7.592529698475061,18.724610114737803,29.461535961396724,0.0,17.73197951968133,2.48291169243901,18.619259733991175,3.1432278038548827,7.717733381190745
1778755641.9563282,-10.68038920076025,17.117301133490272,13.657273823582416,21.140350467462792,-18.433796142710523,-9.022817485594597,-15.681953336228496,5.079478298748669,-57.920695324118526,20.174703374425203,22.55007931629763,12.989376260354748,-3.0874688439646314,6.160708107506992,7.3195199750803175,16.47680195783835,-0.9390091715412251,-33.72996963348691,-53.821903179000266,9.592151764134393,-17.935690466149357,-34.6863395123746,-20.12942801837428,-15.540248567051757,-6.570340133981147,6.611436373020078,0.0,-3.534619992743496,-26.853741883137506,-8.62903382349545,-25.48103357260465,-23.830749867779563
1778755641.956828,-11.345857252457602,6.851398533166745,2.708854095181099,6.580515292696209,-18.927624178895066,-16.741146382991374,-16.720612211288255,0.32185462559999334,-43.9508518803655,7.869452796514931,8.519013101665893,0.6669611309343798,-13.040141508138019,-0.7290377970956063,-0.4583416134159636,4.822065893518279,-0.18893513279279217,-23.969035120340287,-38.360937472752994,0.6474189521708735,-13.44138610005269,-19.877243631434602,-18.090888934502132,-12.865525388854962,-10.601634778059593,-1.3390525076119326,0.0,-4.917855652047163,-25.306396644330107,-12.957441773046735,-24.736306458487913,-25.38468546367642
1778755641.957328,-11.273758539608297,9.487861266055122,3.8862940921726836,10.852861858982328,-20.646001343719778,-15.335036266021296,-14.619295250035455,2.108406402961857,-47.002670102520476,11.40116149024323,11.841934777664497,3.114906555010183,-10.143719804178447,3.4346609785794264,0.1922193942241878,9.319231789494161,-0.3160010452089781,-25.43160865090141,-43.636175821244784,3.085556865812056,-15.966250349161859,-25.124164849668176,-18.423908596978134,-15.412976468650529,-10.275702208763162,0.33747255177288715,0.0,-5.344420647851064,-26.335757070941245,-13.185629002687449,-28.6127483346147,-28.15433613276384
1778755641.957828,-23.070778390755176,9.945185656560886,3.0832455250362916,16.189362668934095,-32.95624568193401,-17.134113863318237,-23.281597129177186,-1.6414421220846918,-77.19692265411177,14.166793009015318,16.04936215537407,6.399328130662073,-10.084894045377391,3.6185358360532462,-4.5815878206984655,12.223281557349354,-0.9933352856242351,-47.51507403515448,-74.03588186556664,1.9674654897462325,-34.37339463534447,-58.207095458407395,-32.39677600120993,-30.24536359210934,-19.020493237097323,-2.6083476296332426,0.0,-16.250360697644524,-41.828793541841144,-23.255636063659285,-46.57908275733591,-45.28369278888011
1778755641.9583282,-31.503699001156495,-1.1867764024535596,-6.9244426079460855,5.447188909921074,-37.91419985662208,-21.788239701025088,-30.629108530019824,-9.158545072054604,-84.48567101189495,3.0174216456920573,4.872042751495187,-1.6617837542771883,-17.497759033381723,-4.858744863055024,-15.960628050909879,-0.24924993821227864,-1.3591885320939627,-54.51705860881891,-77.17512976817878,-9.258406494512718,-41.06265867921333,-64.59004668743128,-41.01213459641254,-35.9867184707087,-28.76054784262641,-13.508548542343938,0.0,-27.186876981827407,-48.12405118864723,-33.3913539591035,-53.411511439130784,-54.97622588132773
1778755641.9588282,-18.547719086725824,-13.327353973697702,-15.66133082969119,-12.79223014966443,-19.563278287947696,-19.456113138973734,-20.666200666455605,-9.0539754100047,-39.77679487952006,-12.039910300308945,-12.865786819056305,-13.763989467647253,-20.625467080811532,-11.114504987936604,-20.545831295679235,-17.1443486490754,-0.8198623671286966,-23.15885090534035,-27.786888894370797,-19.092996551909795,-16.879289786175473,-15.925679472745898,-25.46119475795354,-17.53677290700299,-23.559496378746395,-20.75272809238258,0.0,-22.10044175321658,-24.76397320434356,-26.79683656003054,-29.29827591579025,-34.13913076394556
1778755641.9593282,7.936277598540449,-14.401221409635284,-13.257584071376469,-21.318573860519283,11.245214237724083,-8.887767897227333,0.4005332075857777,0.011458274803410664,24.887849462736163,-16.84039083751221,-19.79363303243007,-16.841589551348534,-13.044562793675777,-7.921523503039666,-12.007460353772094,-22.113680592542924,0.27180571235696743,24.338259084060677,37.0315914736625,-17.103237980138648,20.694778701758942,50.110860847897484,5.470098945278775,11.631293530352805,-4.55985869407906,-16.49863435739783,0.0,-3.3354545043529047,14.686155652272383,-5.680723768735556,10.198270860269364,7.032853706290658
1778755641.9598281,19.531233494507184,-11.094824315888303,-8.525531113791015,-20.838777438398445,25.409091919522428,-4.321266538011998,8.326058759621079,4.194197192673531,56.92458614542173,-15.668682126204208,-17.67438524629991,-14.106789743525741,-7.061550430025066,-5.444321835740981,-3.8373901714667356,-18.843795193913607,0.7573561391253684,45.1260766694329,61.06263884455032,-11.689987705429527,36.035778247432795,76.14342417417201,22.26609323010013,22.34361230576972,7.320735573681008,-10.647673606856417,0.0,7.8443725294765665,34.978422280570975,7.58888950763672,28.674046507593594,31.468780863540978
1778755641.960328,6.085953973273239,-14.870229639425128,-13.060671064917239,-21.989430281201678,12.244509720576033,-13.714693917860489,-5.881689520164619,-3.894491618467758,44.66950520275103,-18.938091634256814,-18.653858205965005,-16.17469400073285,-12.994736560304117,-13.681510451087743,-7.9774342833526735,-19.28667179994813,0.1414489203340291,27.86255377335411,35.54805853567355,-14.329030495988903,19.73276014509344,52.11652299562748,11.825024857042875,6.769685836529922,0.47027027089609097,-13.770271994286034,0.0,0.6790204082067587,22.59608079927839,0.8996313629291428,14.680681455540688,22.48542753239191
1778755641.960828,-12.767606934796039,-23.886244680126076,-23.469266474677003,-27.254365032258377,-8.789057801359931,-26.433918334479994,-24.7437767823806,-15.375573730316177,20.372162831186113,-26.33792823600245,-24.7712550768822,-23.126030623801118,-23.93092975725867,-27.074669346501913,-18.191359152823555,-24.499681231662507,-0.5335975714577652,1.7707625379424803,2.297547479869487,-22.19808188052601,-3.0623050859792103,17.443734711785513,-8.208315929104142,-13.789570016737994,-12.883118231244204,-21.665608966149936,0.0,-12.85071337111223,-0.6478520250879507,-13.213180187393077,-7.360005830142973,1.5920563526020846
1778755641.961328,-22.451415906721397,-32.452141402550296,-33.53814811128899,-35.142017567290544,-20.479619762467532,-33.783205896924144,-34.13331706379414,-23.295964876003197,9.136639634149418,-34.47161118859309,-33.2770048579934,-30.988876558205096,-32.38818929143648,-37.72655562554424,-26.3893363862102,-31.830664597097407,-0.2770978328619916,-9.844252022817983,-9.508638804558096,-29.591208505547094,-13.69894631072214,1.5766600892288003,-20.308434576791928,-24.259383771224442,-21.125535030893797,-28.782802805531283,0.0,-22.259353608034985,-14.417076565328983,-22.422382803749567,-17.934158519406324,-11.144462525010853
1778755641.9618282,-30.2574440128442,-40.722781507674,-44.12429738299993,-45.09690105318296,-28.61539906317198,-40.67276659348927,-40.99868844915642,-31.14566804126595,2.960406107067626,-43.14910940187165,-44.00070146841512,-40.24534953445993,-41.125148771062435,-46.88369239419347,-34.386758438536326,-41.494090351491195,0.312524530898556,-15.587568613371023,-14.237071795267244,-37.597042219384285,-21.388486981951374,-6.574345788627079,-28.1185601127585,-32.80415047512282,-28.74632926335307,-37.27459287633758,0.0,-31.146067801042204,-24.21952669373159,-30.593669171554243,-24.860081865767256,-21.572424195323173
1778755641.9623282,-44.633276680733765,-47.679410856705246,-53.712889094166705,-51.301779627318105,-45.04397506866107,-51.28333127141572,-55.335282110778856,-40.996153542184025,-18.491094231947606,-48.62721766894437,-51.421551920097116,-48.50338494933025,-51.58033025518107,-56.67466226494241,-43.423851207754396,-48.433509221175036,0.2927907362124726,-33.09857759969365,-37.95712785879285,-45.19448485678291,-40.05224952884305,-31.546533514062553,-41.433763222904275,-49.8394553402633,-41.014633467618644,-46.6930721957426,0.0,-43.25000291733001,-43.637557570117934,-43.418572320067895,-42.69532221020727,-41.01114041575546
1778755641.9628282,-62.407399225186566,-50.32821151284224,-58.27554742529274,-49.106783934488504,-68.34758920350397,-61.61029046239637,-74.03218811117115,-49.14472021540225,-59.45814049498679,-46.93537957818734,-48.96363036337299,-50.831677168229994,-59.639974003553334,-64.7111554223872,-50.378265179363,-46.95771344483485,-0.16153657264109256,-63.725482119576384,-81.24462156322933,-48.48290854757641,-67.31230976619204,-76.06477921843755,-60.505044740563356,-71.33855730767534,-54.7426180996751,-52.49305815204334,0.0,-55.81875988309688,-72.65951790605342,-58.31346268863745,-71.19562714477034,-67.55598473210843
1778755641.9633281,-69.69792186644327,-50.433612009821914,-58.929460182983334,-46.97224874437272,-78.613837397017,-63.98131111363612,-80.59532304519722,-50.690707019302366,-85.18143056132719,-43.990469650520275,-44.04970292921933,-49.572556243423776,-61.336895769956456,-67.17597916963607,-52.884769677925476,-43.74985369148188,-0.3695767890271167,-79.05925987850938,-99.42598135985367,-48.041145755337915,-78.6311864240375,-99.64401464813822,-69.4564178304162,-76.34192359616942,-60.31228869107185,-53.15443558754596,0.0,-59.753925591563856,-88.49383136363446,-64.56219948276232,-85.02917402864864,-79.84552002800483
1778755641.963828,-47.63796627794065,-46.96401146836628,-53.31003554376714,-50.33058591158711,-51.15791408489942,-49.10004596579354,-56.47349081872633,-39.03734596658417,-43.272088910731306,-44.11474957129327,-44.98865952436578,-46.519167460516684,-50.21615616801344,-57.23845636720905,-45.01127206612158,-44.129540804140106,0.052017433150525934,-39.37368599646801,-38.990505784968946,-41.70910743545451,-43.67822127062382,-48.191704743177894,-43.873283264542955,-42.36965011229982,-42.75860973823151,-44.74739799241635,0.0,-40.457275590475724,-59.679427564063786,-45.69292995860274,-49.83705226180255,-47.73753969590846
1778755641.964328,-1.073173530886711,-30.497003485500972,-32.82907530688698,-43.49741712749875,4.416737835783483,-17.57778818387125,-10.609516086136882,-13.342019862030442,48.469950754754635,-35.55758621461376,-39.02937583009887,-32.86521446405791,-22.60490232604938,-31.813564288176636,-21.30248883975057,-34.85937724221678,0.8448796636962835,38.393563161551434,64.96862170540737,-22.08357620590691,22.053511393966964,51.86376947585633,9.449206656347831,13.948246164899043,-2.345924462364518,-21.460795878874492,0.0,-0.7209776091378284,3.4091803935207037,-3.2263551382336453,20.94628249487431,19.325895371595575
1778755641.9648283,31.68698183801016,-1.956429831831675,-2.569482545819311,-15.561983016471666,40.40221979977403,10.837656643209671,18.043528591966012,11.318567119545238,95.56697151639118,-10.536922802251574,-13.676260304691944,-6.412865904873992,8.069178979859286,-4.260088867502344,6.842486676310078,-7.457588617457999,1.0364028756075967,78.14570776417531,104.92769037457676,5.8632632150444275,56.66500019929756,96.46470303146974,43.92627073026259,41.68237103254038,31.35707168600071,7.698326547235083,0.0,28.366556885139673,42.57801059536139,30.579810525438056,62.322009859200705,62.57951768869128
1778755641.9653282,27.957738772154183,19.122466013023676,16.884690323083184,13.71996905681749,33.041862540567,18.796305572410965,11.163936232962737,19.173785559878322,60.183781414169246,14.570192753000018,14.747098236223215,15.994290485279096,22.436034360979452,8.472984805820856,19.945252510812885,18.955851980670122,0.12193914366513542,51.422780290862654,56.35764117536199,23.508030252562733,37.519746758581796,52.219744273980965,36.1829886937713,25.681902407522262,34.679719925763315,23.047134682216235,0.0,26.598563771505532,31.671739669336652,32.77535782559174,46.316835448757104,51.58216305410051
1778755641.9658282,7.546018241543436,18.710619729941428,14.941412256737893,20.00399608897231,9.020395923936436,10.931837559773207,-8.812419552989155,12.089691260014545,6.464573017513278,19.992157334092663,21.79767065057164,19.071091140102517,17.760453880417597,6.070655722954557,14.729182316136805,22.332343318447915,-0.9694604374412631,9.92354123909471,0.8828780736938664,21.281100957676973,6.420137142626459,-5.081039598279542,13.17149926422771,0.8771868909631597,18.224798703838754,18.363023588895814,0.0,8.990938866157018,6.953047514327339,17.171206951381148,12.593683926403443,19.43012654352777
1778755641.950877,-6.457162784831977,4.022550116947221,0.40576825403752664,6.191241321331682,-4.310471446045006,-0.4464058286394696,-20.77492172514831,0.5616481202307505,-12.7170324037423,7.497999460601562,7.354297879587226,7.333445879653868,4.653031909896727,-1.837595720759352,2.070791676293673,6.60043564777695,-0.9581049368089714,-5.752141589462973,-12.46324114773795,6.886319021735887,-5.405693499625937,-21.41436436789355,0.24948468912574467,-9.389774675477213,1.9112936275194055,3.96524281568333,0.0,-4.58596206449774,-0.800200393223011,3.502020927552053,-4.6988565344055235,0.17843741134898233
1778755641.951377,-14.257572629745662,-9.140372281373786,-12.648521010349459,-7.465931966621557,-9.95929583949135,-10.511419754988605,-27.671732571535703,-8.745940407916327,-14.410974077622631,-6.1159645522355675,-8.819848691196627,-4.0380845341725795,-7.328596769619865,-8.554639595552747,-8.78761634707677,-8.145439929080856,0.1830607668287739,-9.084008613765874,-13.058967416441249,-6.529766126125154,-9.97150849041905,-21.30992170125445,-6.861858910525139,-14.629169279635375,-9.138688769033807,-8.476626722815663,0.0,-12.218128454249346,-1.107149237462202,-6.590263259865489,-13.13493537531838,-9.548613347807468
1778755641.9518769,-22.10550482524614,-11.544989381093455,-16.52827990894656,-8.216283965333536,-18.40146507991948,-17.390162156420676,-35.42481121039372,-12.23057600238301,-28.460159620714975,-8.451511125009517,-11.411282686805714,-5.67978529850104,-13.62631233089442,-10.267640130787889,-13.443205743745288,-9.863171075772916,1.2488622346777862,-20.433918952808998,-31.0917066167382,-10.683292164010226,-21.283224988508604,-36.5458728798339,-16.278727132605486,-23.88131252117009,-16.63777351701305,-13.52273652206286,0.0,-17.844410397681933,-7.8608187016035265,-15.68243183335834,-25.68211897008703,-22.039380200603524
1778755641.9523768,-27.18252327020966,-4.838455110042693,-12.283886432372826,0.780558859494986,-26.287700658724017,-18.219794365602233,-39.31669236186168,-9.314612873066649,-50.21644397136548,-1.3179219103560176,-2.7259025504544985,-0.05199652383091615,-13.901461921308535,-5.2706619790577065,-11.303987476510782,-2.5808175290449262,1.1813861068718552,-33.572837261859135,-53.20644324426161,-6.070008408092019,-31.015676350169834,-57.13418740351941,-23.369390027031503,-30.237870361236748,-19.648590371800378,-11.566263252566804,0.0,-20.3648188904233,-14.801393950240199,-19.78999690980305,-36.56578257382931,-33.422761952149955
1778755641.952877,-20.70845464509184,2.491787719832553,-5.988834542600475,7.555573443227981,-21.69559891832916,-12.01086586037576,-31.155714063785766,-2.4870557962840847,-50.301361318042396,4.794947827409805,4.134117294271615,4.416026960005517,-9.612669497946976,5.917329231686952,-5.468490826853452,2.849164294294516,0.3500766326156872,-28.212314681268722,-46.60725176348964,0.6419184748851774,-23.599791289859333,-50.91224671980095,-18.151630212995023,-22.831304364409164,-15.244997058173515,-6.407696915130139,0.0,-15.811861025216654,-6.149894147668523,-13.914041443078213,-31.63604608402718,-29.507834590156843
1778755641.953377,3.4238855040517673,6.6323717045817805,0.27542380448494286,6.3205457120978865,1.8436298910255118,1.1321881771586462,-6.295750959422806,8.31921840513313,-8.20336471338388,5.8852740201883345,3.5949031627399606,5.4867116289233175,0.06824110404919484,23.517754785549183,3.0526516349556125,3.4202147174349284,0.23053369360418885,6.829607345853798,3.836046473838494,6.326585389040812,7.025003311832536,-1.1165252114780881,5.691944269439392,2.5079992660544326,0.10532179017476276,0.6581698514897497,0.0,-0.5838756900069448,27.30141331619585,4.267967828959629,-3.037780108323026,-1.2272258418167235
1778755641.953877,36.523616810095845,12.491237963427157,9.849008553378233,4.512918711254971,34.079424467108424,18.692502234123754,28.06586406715386,23.217476699250877,56.364094340430334,8.260697948597532,3.696798357445958,8.962890442264213,14.844424237042851,44.97297854488694,15.58218975185508,5.892285040842014,1.1527277586897886,55.28809471058241,71.14089315783353,13.58651920132258,47.396291247871915,67.28584225085898,39.513301225711245,35.30316587147618,23.3009093152331,11.45162305044203,0.0,21.28629403117306,73.61654700400776,29.84890899398319,38.021438303524086,40.546254094395394
1778755641.954377,54.64390317646856,21.454949006231935,21.03557030189649,9.751104674336004,51.01947274911648,31.04888492396566,50.17016157893052,33.471579660410484,91.18054560952262,14.911508342158653,10.577708270809818,16.251313090856613,26.27469354452338,59.17951659590125,26.26451626497745,12.8286318283769,1.5922827525336531,78.73862196294195,100.65025470431812,20.96314695774743,67.63891883024712,100.19348410611333,57.96349845677474,51.52234103304414,38.829187334543136,22.279047714407064,0.0,33.78060096443434,99.94974989198819,46.36722166426435,61.29337243855244,65.38219847956411
1778755641.954877,43.940842816137724,24.864726241230937,24.609849097236363,15.974924826461432,40.254132925309385,29.193911112198357,46.20623169799397,28.945453724818506,71.31375239905319,18.449951212160386,16.793859195242145,19.3198252726677,24.623133388350283,55.84369193705648,24.560759979481087,16.097554171510954,0.6687645139241497,58.99117485402845,72.21632422117875,21.013477103120696,52.77639276363552,74.81995032804905,46.11699567110723,38.567291487026466,33.8399980146306,23.79747654850209,0.0,25.366198202628585,86.55912900543248,40.5573351749054,48.45332838116696,54.351616234925665
1778755641.9553769,19.48629073758579,17.116105831164955,16.545425439610245,12.946883580409004,17.68656380128277,17.498138431669958,29.737200442342942,13.518413208642327,32.63428641897294,12.750980591026064,12.910350980248605,12.921055406407831,12.819934611917166,39.68296353028437,11.198324550898722,9.685213960534641,-0.691984031718668,23.2258743404707,27.70616879065381,11.764396999200553,23.737124773076776,30.602415424214783,20.393009086879232,13.29725912352623,16.032534617488537,14.29556732018047,0.0,5.810728060813494,53.40461994559134,20.880113005308132,18.742071811326696,25.403698679000055
1778755641.955877,6.183399421379711,6.82028868887241,6.179970607462848,4.922066275817661,6.332279030901277,9.00525710299146,22.114727705847105,1.4191365734385901,18.67681137587356,4.48496294269806,3.909126304478369,4.7707300052430375,4.1785297356012565,25.7501241087688,0.36457575723106933,1.4833853321754171,-1.5181826410423684,6.31291956585783,11.12266710882853,2.5267170238037657,9.206495537524262,13.382107291658416,6.270190505996375,-0.1312850836195436,4.191446813239998,4.991404867128561,0.0,-6.112514065289947,32.28328814491952,7.629620316610765,3.6661949855009137,9.652517312820974
1778755641.956377,4.477301251290126,3.2413267944493156,2.36755851617707,3.2499627767871964,3.546861150652761,5.97173432551706,20.465154584095604,-2.8514559058976596,17.483926072443293,2.788649509154897,0.973595840112157,2.9801828326480817,2.5307442905986246,18.34364164400181,-1.091478787873109,1.0320861295047934,-1.7064009178210109,1.9456332715039146,7.353352104694532,0.3660630071342102,5.742146797755717,11.04514605977766,2.8384266435645453,-4.027540714373294,0.7752568137076201,3.395805771378796,0.0,-8.846516664246092,21.433499105748652,3.721928022681957,1.1727846432972455,6.606130115031855
1778755641.956877,-8.570137892615802,0.23495660193999632,-1.4048258052039477,5.0610716707636065,-12.847983074154278,-3.7749866327007284,4.10898706838279,-9.812536691356906,-12.886911626371376,3.0681457567896926,1.9127094348410774,0.9437224596254569,-4.362252525928916,5.346587990560755,-4.857974801840358,2.590660517158951,-1.3269892371214727,-22.466791713222744,-26.939250484004877,-2.2133246707583254,-13.664422298029292,-19.77762829396635,-12.261654403157038,-20.622968254345654,-11.148448536866788,0.055969719186229304,0.0,-18.63846852999675,-6.138458766055477,-8.799675500765193,-18.833432660366046,-12.798994801439958
1778755641.957377,-37.219853014399256,-10.454103174474614,-13.386624666949572,-0.15563648226246685,-42.6668678321643,-23.13982104129803,-26.933615840034705,-24.045988698118162,-68.66688720732623,-3.790057348547917,-2.8647906796987526,-9.259700883516485,-21.769324694083796,-17.912377343853272,-19.189225471862724,-3.6874008410682326,-0.44140721580089476,-64.79198041235396,-82.97325494357642,-12.805570022822284,-49.16882530561502,-73.78294588433549,-40.85705584312791,-49.48921531525768,-35.08941450331969,-13.753471508056677,0.0,-38.90529600463433,-48.94065463981964,-34.37679200379314,-57.85122580487604,-51.815110877364894
1778755641.957877,-51.58839950634323,-22.182992373102422,-26.25382028268151,-11.405954113714625,-54.18518862222946,-34.96998548905429,-43.8043018107438,-32.96774752418181,-92.02106094377928,-14.975340038992721,-12.814729412703642,-20.807349452678675,-34.74239976933903,-35.79316239369567,-31.74837959271673,-14.616876575163113,0.43863807121710896,-78.19700657606694,-96.12964322233728,-23.40780734251939,-61.48581122063664,-89.63551198993417,-52.5854400681643,-58.0873305765841,-47.63178556207423,-27.756205789693475,0.0,-47.85472444548494,-66.53776774195207,-49.078703032526676,-73.74510465040467,-70.4375210074603
1778755641.958377,-28.634651147733006,-23.962200966301815,-27.233284443024434,-19.834714983943726,-26.902863015279927,-25.336739734820366,-25.979674944787543,-24.787919256320702,-42.898287624373054,-21.5950406581198,-20.24068858817994,-23.223782676776707,-29.00902301177939,-33.97403539835023,-27.415629255604124,-20.939923390108532,0.631950755461491,-33.292913393920706,-31.640045225176365,-22.59043463834649,-24.58237861529491,-29.844668924021203,-26.16156921734823,-26.69618384057507,-30.669540841473165,-26.888234463694996,0.0,-28.385480376337657,-33.87541962133147,-33.35029664370884,-37.65307340599146,-38.45346333538344
1778755641.9588768,16.191962369551955,-14.010691678106225,-13.476917766939064,-18.869750827664344,21.014515688904954,-0.8965437264749442,13.256596778498015,-3.5590793637340994,48.62816089474019,-18.679455477372258,-19.005081548126906,-14.532741258338312,-7.7496383870615935,-16.28294837500886,-7.403436324044495,-17.399515881307046,0.10976372883521701,39.766102293698346,64.79450201539328,-10.003751877387202,36.0308351711661,66.4392175096552,20.579809790216718,22.529189667579878,4.577096404781371,-10.195568651006106,0.0,7.752903123545181,23.72726396698731,2.580072907838372,26.179771875307193,24.019147956126943
1778755641.959377,47.14463729500159,3.054408047701698,7.539750823105166,-5.266149448773379,52.493752333527695,21.02412739120554,41.80833926220108,16.556325471870434,106.77888122713033,-4.627693471517844,-5.25841675410942,2.0379027396939464,15.476535258327033,3.738876646149515,14.708136072440682,-2.4518385247372474,-0.5681031809878335,79.877779437741,111.29605915584396,7.147076951252881,69.28032605737486,117.93690677630416,49.34341631594138,49.565128462667126,31.668514248803863,11.151092726791058,0.0,32.85897031185323,57.02963203134871,31.299619390266628,66.08408553427827,67.28818334203432
1778755641.959877,43.804082556142724,17.991359015573316,22.301971570063973,13.811071922348377,46.63674248100737,27.597931586507087,39.96140291069673,23.237430443760466,86.07980582943443,13.770051607553428,14.713919313509491,17.817738620817977,26.547503277145506,13.92383486101745,24.57174595804105,15.875028445746747,-0.8356688745833354,57.10868731942999,75.04151291596172,18.853790597385846,51.77649796298607,84.54900663715406,39.62706975198949,37.0440815978444,33.72169146844092,23.145138061581473,0.0,30.441452369650932,41.62364416312919,33.312077891669865,54.51729033438963,60.48095515321558
1778755641.960377,19.69108719205911,19.85726840129038,20.86805200671218,20.682884064372235,18.707679088928966,19.478242821005924,18.994299431316417,15.90788269190397,25.688034067769554,20.55493520824172,23.035033679619968,20.73858926296091,20.523387104277685,10.641996781449292,18.544354869140445,21.28634640205689,-0.5002801694801224,6.869853469902527,10.955765431141357,17.46332764471397,12.979109198680762,16.721630295333078,9.898058212856835,7.346144974918755,17.594671363708304,19.409297240343136,0.0,11.167030838185752,2.653408501482772,14.866541040994276,16.445203752838466,23.523962169917468
1778755641.960877,3.0541151899443792,9.888433374108704,8.965150160708156,10.776965004569586,-0.633974983819158,8.116115926409913,3.5479884214994746,5.290107957612565,-4.800268679098083,11.226091560859945,13.933051434275722,10.96657938532355,7.884792098941608,1.4033190903640227,7.560902182293121,11.630145586903541,-0.05726665295872509,-17.21817767513669,-13.622650416963582,7.520388264572726,-5.156525072051646,-12.53884615962965,-7.165072679330262,-7.571191762552629,3.6687413842960717,8.228238764625655,0.0,-1.497938007917192,-19.095342711070643,-0.961003230598906,-5.2590370276727105,-0.6807748319001317
1778755641.961377,-1.4475985716791535,1.8348498343297426,0.6302168390760438,1.2201348817432225,-7.209143649194376,0.16354965136625862,-3.0965111504009273,-1.1447932946916473,-6.371492407333093,1.2196731549085884,4.282008197965385,2.3856416268137246,0.522459783524081,-6.106377835622082,2.397160122540479,3.648583413570128,-0.21087500139797863,-17.269026596476323,-13.014893895948594,0.845312759419143,-5.936566444033841,-11.4638397625828,-9.490667475880286,-8.973766178399318,-1.573158145806652,1.5794598817995917,0.0,-3.1099467808288233,-23.128867462681715,-6.362422926383245,-9.129332789404987,-6.285766643857772
1778755641.9618769,-10.301229742149062,2.3679355675719838,-0.24200543645991168,3.870482186670242,-18.39009620822931,-7.060349190540273,-14.16439156258742,-5.845801740028988,-28.906027661745423,2.0613925875796313,7.022671743924955,2.243118911844332,-2.86072714656726,-12.443569849581994,1.181262858688018,6.6291163254453656,-0.7666618919306633,-30.022494358958966,-37.250576021508145,0.7855004969482822,-18.529048842905652,-34.01805270029541,-17.433740909559187,-17.199861117465616,-7.556497587964578,0.6014048525753396,0.0,-7.401929357492314,-36.958250904960884,-12.935617071566496,-22.29779335427282,-19.18519125280645
1778755641.9623768,-26.03396089554118,4.198825878523958,-0.5350814200220829,9.039591979893135,-34.496991834778264,-14.066549898939856,-28.136399138300206,-11.447278654951019,-71.0710926132768,5.8917140640689745,12.768543931696037,3.194979659339852,-8.187494121829662,-18.782415052181626,-1.9726892011078367,10.631561529414013,-0.9131828640448353,-53.49866145089107,-74.95790993307708,1.517115640532294,-40.05112459861993,-74.38281873732718,-31.422393575578514,-30.009898637834485,-16.673790687409607,-0.6877262232492111,0.0,-17.251653962774075,-60.89717435941817,-23.803851461912284,-44.00099331895185,-41.86066828632903
1778755641.962877,-31.166677887613588,1.2643467756363134,-3.5171499907375665,5.04485395168624,-36.69226058958456,-14.78290540340986,-28.625157984110807,-13.682977279258763,-80.12773230380957,2.709429047117592,8.743415018907333,-1.293730818426601,-12.834657281189871,-20.298586066978302,-4.880455245272921,6.28273002781592,-0.5741821537287395,-50.78794227285166,-73.02035969477357,0.40946966399984364,-40.270303318401325,-76.70566490349978,-31.08347339025524,-26.333455331912674,-18.305586858431838,-3.0344545937713785,0.0,-18.68726492269364,-65.89751120501303,-25.86429230630852,-45.457997774400475,-47.11811141059234
1778755641.963377,-12.736466791096662,-0.44044806360431965,-2.1831534628720184,-2.006122393049738,-14.586213616574634,-3.571477019449207,-8.078679420795446,-5.527944136456739,-33.12876633087533,-1.4763106657798932,0.6976559001107792,-4.587181170427875,-7.563665073735173,-11.187158494147532,0.7163632470857093,1.3592278321211568,-0.17566385348770677,-8.387206457045412,-16.600057374656576,3.3535876795455266,-7.339458104379742,-21.73009214532387,-5.954457917118832,1.7907375833778516,-3.046397404780327,0.9045904639692816,0.0,-1.254996412580207,-35.99068907583335,-8.9732379370453,-12.783575386021301,-18.513969871187157
1778755641.963877,17.281908912706918,4.8918128813650945,7.809831035608052,-0.7083338636391538,17.8298024645128,14.142987819212207,19.5000796324579,10.667594088762336,31.212498127436053,2.6794061360351513,1.0982243634075604,0.6551506710446746,8.338575001003477,4.237121820087607,14.692519541606384,6.143199130579965,0.2487719870137896,42.330395141744674,50.08283811251587,13.221292935448195,34.57982439637188,45.82078636641986,27.809243961138858,35.14302759910728,21.78977310274383,13.22893440962389,0.0,24.507686914143413,7.870188413360222,17.215633031519634,31.708629676811263,24.663216168502608
1778755641.964377,31.32822131765234,10.663332852161021,16.961506251026403,5.839099597463397,33.86312655522603,22.902043188089838,30.748766187796992,20.57840083105081,59.31694251504265,10.060499668829053,7.578467452563375,7.789818394953255,20.824985254441454,11.968410307480536,23.891338976893724,14.335664203450357,0.5133186817782271,59.58555389392854,72.34126069639875,21.001085526165998,50.11455378849707,69.65733468761157,41.574758807899634,45.49689575787248,34.70062455343553,22.217053924196463,0.0,35.59419664149887,28.602504016884314,30.21859348317036,50.921320552445486,45.96520245975669
1778755641.964877,21.593047733181756,10.573825334618729,16.86671586894929,8.9720496304982,26.08818316564008,18.26784768461147,22.41840139010738,17.34412450042148,42.49075492549912,12.691119840424577,10.995915398970219,9.220503287101,20.621279395771396,8.436231548553993,21.08393384809646,15.760706025389869,0.27147777191917877,39.551164881653875,46.01236355448932,20.08757518128898,33.341282007082114,44.487840461965575,29.098612737283425,30.72338432615608,27.072364569122932,19.860008205760405,0.0,26.66298930206542,17.504061136639084,23.31823576655538,36.77575740750538,35.48039169720679
1778755641.9653769,7.443251696782718,7.925872234935425,12.324212945459264,8.335734565093194,12.687604261110966,12.698922956865909,14.509569799490713,10.116500253433529,15.46252881825795,11.678663940370281,10.142457704620957,8.404241709950234,15.388220647551725,5.637197166731318,13.883732088923484,11.968066745522544,-0.057107991229439284,14.523908917660869,13.564869737673085,15.30407968956352,11.026855402512798,11.490322792685639,12.480777943336438,14.858184577330812,13.350218564445727,13.254847310877214,0.0,14.680211353870181,0.04636797925291187,12.295997745338612,16.180817928089184,16.815657112913264
1778755641.965877,1.6321601000942931,3.8098617380396993,7.621550641935514,4.89136474118738,5.7584908287093155,11.79686015713968,16.5066170676977,5.494217953792601,3.6329170146428806,7.11178552725716,5.835908287581619,7.020169683070135,11.820577403160499,8.035657925243253,7.62825910095416,6.09899009261753,-0.04262357235628522,3.901405876808829,0.3015061930101923,8.823719803780492,0.9392126688913426,-2.5281727459352785,6.140004558924115,9.137574627488378,4.736404814824821,7.849774393122615,0.0,9.051304806606515,-6.6009101893160045,7.073646421666585,7.189060045129288,6.34165773207639
1778755641.966377,-4.0761772600083335,-4.764714035212637,-0.20395452206714848,-2.443230050089725,-2.3556127588282285,6.536449491678859,14.746136884707989,-0.621574506838886,-2.9453742542928896,-2.9212410307039844,-2.3186549081139374,0.795018224559035,5.648619649163116,5.739780978941121,-0.784308723924194,-2.9185019417810123,0.03504523915328182,-4.618150667728351,-10.465983385305178,-2.848943224642319,-7.712448092986238,-11.478381067756228,-0.026789649185180644,0.8484167310523492,-4.417037134187287,-0.17394288183854442,0.0,1.7921355838545765,-12.626521134148817,-0.09063678978767156,-1.338157589902298,-4.599863554121047
1778755641.966877,-18.626913407672124,-13.651503965578888,-9.811834923884309,-8.503879867569864,-20.013806103078153,-7.350199771397297,-2.2082775372253214,-10.477741214001204,-27.58389501955171,-11.611224231829176,-8.656750181541566,-7.467850944183083,-4.937570053688177,-5.7225360833872845,-11.100122718109377,-10.465735153698173,0.2367235965996051,-28.154000146057253,-42.19360750034511,-15.73258916533648,-29.322603396418277,-39.897119605691536,-17.925555013152522,-20.326099389886057,-19.49483514142891,-10.71805078000956,0.0,-12.701635731010718,-31.136195558639642,-15.700155451255505,-23.693385003249244,-26.692215892554533
1778755641.95309,-39.237078027998194,-16.210768711585256,-15.47674001853075,-7.092165002342262,-43.813927757958005,-22.587651469795528,-27.879752993998594,-20.031615480193494,-75.57474517433765,-11.294370115342241,-7.383757659620051,-10.455504702285289,-14.978458126829143,-18.947991525900736,-19.367083757553498,-10.089787469627291,0.8010415384155554,-65.20741327574467,-92.65082248932174,-21.501649280988815,-60.719659370236656,-89.81923019381163,-43.59641965681191,-47.62889181217066,-35.9431591745536,-18.184805896286246,0.0,-29.51146403914513,-58.84256045673792,-35.12182283775297,-56.289983161703304,-57.457349391282776
1778755641.95359,-50.98809276919142,-13.568952839805457,-15.647971495297034,-2.6471390672978155,-56.240792798384064,-28.5513197082085,-42.48868416614789,-23.33923276985564,-112.1696355969864,-6.490151078475488,-3.362378701462272,-8.32050397939807,-19.20260768608899,-24.322338584661107,-22.52535713293563,-5.976210125606934,1.1735750051651612,-85.46067560684662,-119.79742059139988,-18.538864646327053,-76.86085764773901,-122.04253308228654,-56.19844626517945,-58.20957070578009,-41.868914058162666,-19.293793455076706,0.0,-36.3510254412234,-72.15086271906706,-44.678691840700765,-73.54267639726243,-76.17541938433155
1778755641.9540899,-32.63466007517339,-4.712643510098703,-6.297504497560748,2.0824080078644736,-33.96429834722179,-14.384350510218487,-25.237144044506202,-11.829785781980092,-86.16393081490129,-0.017908571863454383,1.1043254206830748,-0.41030704017772657,-9.348905023697904,-12.600604336363704,-12.038298476305892,-0.9858196415609272,0.8537698680063902,-50.19919606850835,-73.54332979247388,-5.278821733005004,-46.71426262243276,-83.8978495796648,-31.029818751366932,-28.115198268424503,-21.828322346303008,-8.211131100852455,0.0,-17.282473937633295,-41.1625832938076,-25.88200623902463,-43.975030753196016,-51.149100668528725
1778755641.9545898,12.512581628166759,18.46623456787322,19.810261963535382,19.32105662319632,15.74450702420539,19.506875742097904,17.492920373774854,16.576027330987802,-13.444320921595564,19.251033567376783,18.85307829457326,21.333975681285523,19.24096448065021,17.7869618176107,18.06867745124548,16.533146290550427,0.3791552254605613,22.527642029032286,16.321350788290143,22.05359714939282,16.355085875447468,1.1863862694475986,22.542564181674923,28.377668355634604,21.27338976206858,20.379167677485775,0.0,24.019207983898845,22.812751496978006,19.288519284150244,19.594114054347344,11.820034872208637
1778755641.95509,45.18393434482649,51.15411150898384,53.842615463749816,53.16295102296085,48.00350252423739,50.96409264385115,47.71363182219634,44.65875980360968,17.515631222193296,52.8440731215893,53.91304475447095,53.44303822489858,51.017149023927914,49.98722980686607,51.549967866443104,49.7002555873245,0.4006124635386942,58.25901496993504,51.20120931582456,53.991873273034415,51.18767829578833,35.6044490251935,56.50652316914782,60.492707125256224,55.018124630247065,53.58789185415175,0.0,54.74183147375679,61.23259867548912,55.737564954932616,56.428646011710505,54.32207165105372
1778755641.95559,41.32198096458364,72.27244530965206,73.25686226147329,82.03278958569987,40.544582336467926,59.261730683784556,44.66172179833693,53.40733834540658,-27.549956920329087,78.97714140002273,83.8694081398434,75.30674743399396,63.51928598986616,64.15626293842742,64.68445009214865,76.76217694352741,0.5521812731571369,30.798238260620497,6.5855159232245075,71.10516597139511,32.89811444814308,-10.53226855077509,47.43618967919699,49.00427915586745,56.07280821291957,68.94024100838918,0.0,54.26488839543308,46.563681390943366,57.595763557827276,39.92982977712787,42.705048955084656
1778755641.95609,22.723485795146317,71.54137571081387,70.26071555314985,86.36129270851303,20.663793084132557,49.835173076934,28.471579651278468,46.32410047893653,-83.10383572768383,81.3338719664495,87.97620081485701,75.28604864959412,55.760161977661085,60.20237828724843,57.01719586890643,79.23728915743933,0.2792834967502532,-6.951347739517327,-41.012897617119464,67.88575846693203,2.923916735149098,-61.527235042744095,24.03757998290623,26.540578882090447,39.111255621909855,62.672625274813676,0.0,39.22677204100015,15.7715422057441,39.68698331870671,8.756701884198222,10.47750815052644
1778755641.95659,15.227242453625129,59.65081034119034,57.45096207655841,72.74239106403982,14.53313161351711,39.35947367945722,21.018740038272995,38.49966994523884,-93.98363320478268,68.61122622645156,72.90767770451589,63.45176946878405,43.562287996874154,50.898684467137684,44.90500517136485,65.0816471332923,-0.15931136733762608,-14.479764131990194,-42.89263101410176,56.01038204827772,-3.993963765603162,-63.60808899216624,15.009580885954316,19.459620468755176,27.59748401627275,49.456452887553795,0.0,30.825021864771724,4.953212731207858,26.58774361527062,-2.0112152783006896,-3.847247112916456
1778755641.95709,15.83067598559038,49.74537136079445,47.522692032260224,58.885214936165205,15.881481395438605,33.46541140987216,20.07832717458931,34.88557420558905,-79.17585241971153,56.72821502422335,58.3616195214528,53.661601996674285,36.67239470007895,43.406826209054756,36.97228513033299,52.47996564061679,-0.256359074571739,-7.810799252726273,-27.934401065530363,46.57239740832428,0.5370056356170038,-44.030513485296574,15.53645109213347,19.823457728238438,23.645360750963928,40.50258160195222,0.0,28.818701457563616,7.442472870680658,21.21999034997034,-0.758513777855778,-4.066868092506917
1778755641.9575899,11.060131442248156,43.895502468528875,41.300357594223335,51.45327721314149,10.986748231711644,28.978316957501075,16.633449730162646,30.570566141604445,-76.22164582616502,49.964800171081585,52.121018222374396,47.99896704596979,33.22908171728985,37.067449834524055,30.52508746134083,46.75387682984683,0.1213686781804242,-11.298318119956306,-31.356912890988518,40.423638582595615,-4.3940957677842825,-41.79561908013673,10.814476945362287,14.460279500523749,17.747862518726073,35.045738838775875,0.0,24.103690755413773,3.645759465574485,15.096486296283562,-6.36898467904364,-9.9198307951498
1778755641.95809,0.8097870092937627,37.49914385953081,33.706562060341845,44.84714571556316,2.7000934838026405,24.764967736770586,11.702955470492588,23.219604819533345,-84.85992591115708,43.14877697092406,46.795593819555556,41.454316912170434,28.7763984672023,31.070456590976978,22.33264327650763,40.550983802458894,0.6638614775384454,-19.526074257617694,-43.83824144805483,33.60534343494397,-15.092588618533664,-50.91806096774819,1.578244757964462,7.881404426712397,8.788545481118827,28.483170517509652,0.0,16.27490752059251,-6.068483658245535,7.642545993680561,-16.18813154801672,-21.95636878880124
1778755641.95859,-0.2840815972186433,28.882859508208647,24.833346675298742,33.64078446202013,6.4713867990183,25.05911825019656,15.380674242110292,18.89144349457448,-71.86913435859324,32.50579705364389,35.09089795862083,32.50286053283848,24.588116064232768,28.285898222614403,15.915977443867932,29.525134074348284,0.9001256258734028,-8.313133423948356,-28.113581360428736,26.49594607712235,-9.051017384643224,-33.890495665972324,3.233866975147706,15.654196296247031,7.321750196964833,21.919326341923327,0.0,15.462619612641896,-2.472792802193047,8.251886544595807,-9.882714243198883,-20.182662239706058
1778755641.95909,18.416486529502635,19.83152214951107,18.696538899768832,18.083053259198845,30.49227770379624,32.24798642383463,33.80946612176877,22.836308654566686,-13.36778101365157,18.41172032317274,18.307367287131424,22.61194111582263,24.520243772517304,29.601998642396044,16.079342048438452,16.38459586188072,0.8141284534154499,33.655756639772235,34.51163077166776,22.02207116141273,25.574894320292717,30.031679080284114,26.081362545386476,42.878016109960825,20.64410423570747,18.996981471709866,0.0,28.337964286612657,27.363916044763247,22.784374828242612,24.497135930278116,9.881983831591088
1778755641.95959,44.92825820672583,10.28246373802093,14.222755235842266,1.1980280762794056,60.64248638462611,38.19937923556431,54.343761600643255,28.501250231590177,69.0927876048466,2.4000432208396405,1.1442624100417724,11.169535725674773,25.605582950719295,28.1578977893393,18.971826834198684,2.9992159710783897,0.7409843285979917,84.20561594629251,111.89431479330625,17.620634479638397,68.44061267172673,111.08316062878652,56.41998508699327,70.90224751636356,38.55360979664716,17.080527193513877,0.0,44.48067670795407,67.32279381449217,41.049742041572046,68.73729352321274,53.19613067883943
1778755641.96009,55.536006717659134,-0.7651526953855059,6.952797811443962,-12.29609906739778,71.95662787990562,31.328454242814423,54.29120291822472,24.710772302373325,123.88398957758791,-12.458575338435567,-12.927903601827836,-1.9859564422449882,20.29329359040949,16.67517368553951,15.9940476414751,-9.749277846552147,0.639238707762047,105.36581098787921,147.43631746905388,8.29229527974033,85.19130102228434,153.69395713808288,66.54118214239409,74.32339972666986,42.718451444543874,10.679741810595704,0.0,46.0527309291128,84.27559748802504,45.135782170360535,88.63648735394501,77.1854714093315
1778755641.96059,41.89843490597859,-14.36353728661485,-5.774310888978032,-22.104733048437716,55.74611721058965,10.205768683267076,28.61827445854552,9.09342182696871,127.25095863940179,-25.970474024736596,-25.884570972993455,-16.503825857554595,4.963742954763331,-4.960012067609747,2.9858191099903166,-22.725950769400082,0.23685224063874263,85.55924448352839,125.61464877729996,-7.513881149586343,66.68794142079001,139.35035882319784,46.57748918047817,50.04136688453107,26.727370848209773,-2.504178397079267,0.0,28.388699264134072,65.13211350437723,28.614419948775886,72.58133690406936,67.60150902658269
1778755641.9610898,17.150603173026603,-32.74649386361347,-24.39071882514751,-36.572640411851076,27.213297003667954,-16.340370769868258,-3.6339324493348304,-11.596113967696631,108.2253495681275,-44.06689150501294,-44.6836451476303,-34.862571095150884,-17.83098841052516,-31.681272795032385,-17.821514625425333,-41.41006738999799,-0.010580370779035559,51.0497441041084,86.98060189732384,-28.909131171435245,36.143318142021926,104.61685038727089,14.718127379291317,17.999748619769996,0.33778337211013854,-22.35831771576134,0.0,2.970497195286948,30.32275122448075,1.663362948427038,42.169315388011164,41.015441948707604
1778755641.96159,-2.0041033942402158,-53.912188162981046,-45.069685566270984,-59.47222625941874,4.88297968541724,-38.595957027558654,-23.536449883894193,-29.759183778041397,102.71123463779465,-67.04910229691086,-68.81593654671242,-56.56274761540204,-40.37223687338821,-55.490382451841086,-38.783911754900046,-65.53836186406355,0.6565476822148313,29.73354084633348,69.13952944768005,-51.75057123169721,16.460947145616682,87.2096007218129,-7.791889809368983,-4.895867313116044,-22.188646007288664,-44.48957793239287,0.0,-17.28201652928549,6.47644419833131,-20.977605853514234,21.618811644486513,20.37355045693593
1778755641.96209,-14.712607588715533,-71.29913733761141,-62.66725204809858,-82.06025538998126,-12.07622495312489,-55.11170430841556,-34.109761391441616,-44.35009780984727,102.74121292512692,-85.64346498554598,-88.22485630431905,-75.53254077606252,-56.69401527595913,-71.64567634459834,-54.38205055394543,-85.03357288194394,1.424714195058087,15.556593569480237,57.77027537916766,-70.71913455455795,1.7296378104169519,75.87810404682041,-22.76727083656613,-23.184693888361682,-37.77483275147423,-62.551108909471274,0.0,-33.084689974404654,-7.0108517179462995,-37.23404802431018,7.286760573303953,5.5810550940287476
1778755641.96259,-33.70122047476918,-83.97527764922702,-78.24912500749033,-97.2927930522974,-37.93728735950089,-72.98390798879163,-51.52444238212024,-60.6531737887601,76.269301472558,-96.55661595103643,-99.43557028438154,-89.92390867913947,-70.75572782847487,-85.14609761896897,-69.0166038791233,-95.82466609024765,0.7864468039792537,-16.441267087246327,16.895199129072886,-86.56053964958429,-28.604259239471087,36.397028993554834,-47.30575529362388,-51.194380311067924,-56.65752019129193,-77.48104232885382,0.0,-55.581311382526174,-31.86147440476691,-58.50463546014082,-21.82594184061465,-21.786554309850683
1778755641.96309,-60.28129084985904,-96.44062449774098,-94.43353880671171,-108.51283743877869,-70.91304110898062,-93.33205902013376,-76.35828720856294,-79.18682514391548,28.14571526761296,-106.11266699637653,-109.33384070316589,-103.4128720882897,-87.70451857055384,-100.17284365149995,-86.96513104017906,-104.60320961843838,-0.606431702880861,-61.23733103273984,-41.80630963828117,-101.83150932516796,-69.02526618410148,-22.149729145157846,-80.11086680763049,-83.45665566580138,-81.3310836499808,-93.33040729202493,0.0,-83.72589590223899,-68.55955937672998,-85.69035438481185,-62.37961771961198,-60.72742370181804
1778755641.96359,-73.39828388268701,-107.16494022995484,-105.65726611741331,-119.6245986085841,-85.68762448310665,-103.44861890515676,-86.78745165229257,-88.69457432078893,9.182441063081894,-116.071107739974,-121.01020480870218,-114.95689751779412,-100.24248822299421,-108.19559433109984,-99.55361244580517,-114.38249667082297,-1.1784373748867234,-76.26853548441198,-56.71162351994908,-111.11791514815418,-83.12782797058395,-42.0621990786274,-92.69591307476372,-91.76971314300647,-93.89775674497604,-104.71833808222146,0.0,-96.46733652888722,-83.23145608765319,-98.15173750045042,-77.62095016721834,-77.77084088986945
1778755641.9640899,-54.18331399825902,-108.18322533764301,-103.10485774479358,-127.72706313681218,-64.01683111553139,-92.3310433666864,-66.48744141461137,-78.00070096761954,56.533229766723366,-119.84590205130236,-128.40498158355763,-118.1471536092695,-96.0880706195749,-98.74834007541904,-94.30893190061457,-119.36978761717474,-1.146291190510024,-34.63839387471904,5.6055519403972855,-106.20477216714733,-48.53847529671588,12.382696405979052,-64.83541928220242,-61.02759686154683,-77.67840516941502,-100.9037062392067,0.0,-77.99775926814658,-50.7923230324828,-79.53621265571138,-43.21317204843621,-46.85366029649771
1778755641.9645898,-12.375907891381773,-95.72597015492858,-86.35043425159701,-125.933078386316,-20.470881895819026,-66.39232568696303,-28.0433167858448,-52.11387330041623,143.93038287327673,-111.81805836949323,-123.87647912416452,-109.30737820934466,-75.18490820047887,-75.7008775667422,-71.84337666128778,-113.3127778583032,-1.2010526590585922,35.7450684368656,100.58593577625072,-87.47835846834182,11.365837093223906,103.85613499060106,-14.054604042816525,-13.462248369894674,-40.88004415510487,-80.54158406357544,0.0,-40.495666136063605,8.688085288995815,-41.050965073409344,17.772717619189134,14.155184171785015
1778755641.96509,18.867129022589246,-76.05308921007692,-65.83739826901373,-110.63955874991403,8.288996321166643,-45.6268797461349,-3.272804366673355,-30.46229744262971,198.8956198036987,-94.12222601331463,-106.4255190507827,-92.03992925275377,-52.556278406863605,-55.449688429285736,-47.417027256456166,-96.22444441362742,-0.8679031604459378,75.3395934522714,145.11355290492745,-65.59854878903377,46.767956989032015,151.58677860748108,18.783056958079356,10.818549993264638,-11.126983800551988,-56.34088723049614,0.0,-14.110145475404765,46.90149842404598,-11.687923459695284,54.71651540571846,56.61886749985686
1778755641.96559,16.555515848370447,-60.949801360801544,-54.26830623886139,-88.97376505818927,0.6147687712525276,-44.383405431653806,-10.509057885238267,-27.284413651721355,176.1916291011283,-76.2811730790232,-85.5248153811953,-76.14860717197354,-43.31601083701525,-50.136500397232076,-36.78056525875599,-76.12246726366484,-0.0351731822571126,53.90085598836901,104.97362227539392,-53.08097443126796,31.636013460455786,114.9357189199304,11.191760633982916,-4.1400628748569535,-8.719594726363042,-44.057477989816554,0.0,-16.16458419969751,36.73633088392233,-9.666674565007872,40.75466519093504,49.78318393036219
1778755641.96609,-6.995983273902881,-57.580609735696655,-54.492802778455044,-74.56216325644733,-26.329753573350605,-55.36647314361111,-34.060670747572985,-37.49015496433354,110.23353897991892,-67.67560592271738,-73.86027206922029,-69.69018309891197,-46.60415709504592,-55.37259628605727,-41.23591547534874,-64.34131843519084,0.24783880094173083,4.363605442869331,34.100893124745156,-53.07377791812429,-7.683878680543155,40.54185419730227,-17.406373951611833,-33.36926700501277,-25.784706078037264,-46.6759716361845,0.0,-34.28674793221611,0.9219425479288728,-25.002511082483835,1.617590296487794,13.981840905669367
1778755641.96659,-25.634957216385864,-61.1318919825889,-57.52189313093702,-69.57761059870306,-43.53925084470615,-60.3558391854496,-47.62467840847913,-46.553644941839515,61.41990505402924,-66.34645957113014,-71.16266292325064,-68.90836220121047,-49.80498345419969,-58.210267237844064,-49.10086544315841,-62.37504632715001,-0.20028780635181537,-26.040981879973437,-4.816171527984133,-57.05220568890284,-32.37229875078813,-7.0010641966435845,-35.707779641903265,-48.56369875908754,-39.55357168363043,-52.54203394151929,0.0,-46.982182634226916,-22.96622807677847,-36.69105206005924,-23.106947087656984,-11.557888389101818
1778755641.96709,-35.33678834106436,-59.048344638364675,-53.76675819092444,-60.48830132230457,-49.497838755846466,-54.38355251436914,-49.54887824532603,-48.212876453681176,30.32867079204526,-59.51485834701885,-63.10448002096537,-61.46998371321525,-45.99497097840385,-53.56375747435007,-50.78065732827659,-57.4310995945966,-0.22980021588418384,-40.283982482193544,-25.72404895434196,-54.68050929253077,-44.093188362790414,-34.08260617086771,-41.97930783867927,-54.998503877144884,-42.55375132161257,-50.249114370275656,0.0,-51.51832525092428,-33.087379840571415,-40.66299106244073,-33.96706070628054,-22.815425596170986
1778755641.9675899,-47.42594145537702,-46.20682271197553,-43.380707356548484,-40.16774255897447,-59.08943219352418,-47.29802413963423,-54.732103708260205,-46.00118707608634,-18.167139867773212,-41.672224871228764,-42.992657576732924,-43.88569810187946,-39.441959688812595,-46.30774396092706,-47.03712570971919,-41.18537735845043,0.48926947346082733,-65.91213283472555,-68.56094555019108,-44.58816416065764,-64.58713696818131,-79.31233043109629,-52.29719720346271,-68.57838794005197,-44.06414236454737,-41.03554604391249,0.0,-57.12039483927601,-49.70333608650933,-45.92853384508818,-54.109454081007534,-40.629661349297564
1778755641.96809,-59.87834641231385,-30.11447698232962,-32.890538358528346,-19.27403980059029,-70.25922424666264,-45.01761233644791,-63.14495088513308,-42.700034722318534,-76.53840290235016,-22.715005587434415,-21.679457181336197,-26.388998541345696,-35.44666883773671,-39.941832474326866,-41.87085022955676,-22.46100095839326,1.1286029214705608,-95.10750677215995,-115.84706069187432,-32.73456245216037,-87.30801328742534,-130.0090077266301,-64.81917849405356,-81.2018140687093,-47.423799509992335,-32.704009499009146,0.0,-62.44704053029417,-70.27850555028718,-52.36766880318117,-79.30248449291814,-63.90798890325121
1778755641.96859,-56.769169345517554,-17.098403892003304,-24.06509620236003,-7.545402002791662,-65.60808492622826,-40.36577003903003,-57.990766434785634,-35.09960006813777,-99.5864144869641,-11.089480215175438,-9.0752030342685,-15.791524613169255,-30.84470477176518,-29.991116969577003,-33.374941877532564,-10.857971889774413,1.0327713759249293,-94.16891143368044,-118.49486628368709,-21.434308114432103,-84.58135683141982,-138.30810812891272,-60.38117528690492,-72.10222056126268,-42.4637393204606,-25.686342728517467,0.0,-55.467522256637565,-69.75923412376696,-47.814371936365816,-80.7636364675369,-67.20580879208501
1778755641.96909,-30.862370718844197,-3.515300754335909,-11.296850199877028,0.3956979132256129,-37.898297244104505,-23.77676038743332,-30.82370166158428,-19.09001930496225,-69.03912928707456,-1.4164325056788973,-0.13941894827113419,-5.524724930192919,-17.745888895032852,-10.656187401031971,-16.520986877365182,-1.7627543829687031,0.21738164237897872,-53.25003744213455,-67.43243237415395,-6.4361499414077485,-48.06008480429577,-90.82327139232318,-30.488749056426286,-37.871636604526465,-20.834609448510545,-12.821448123662705,0.0,-31.013547630552658,-36.85119091497702,-24.62331990466962,-46.72712281679913,-37.098617390142415
1778755641.992058,3.430734979160644,14.38283245334973,8.248249113332841,13.6651699332659,-1.9308699129750628,1.426305443256579,4.451003150955692,2.495583408836931,-18.306108433416025,13.8072110962466,13.735617056303479,11.050503859760584,3.5483434129214464,14.552170427563999,6.406222297370585,12.909315333217373,-0.5488287931393062,-1.8344512967707591,-6.162026978434934,13.212391645492682,-2.303197474131635,-27.99003746050455,8.118627050840649,1.1578827444658981,9.161349588231152,7.709659833651535,0.0,-0.7026468398014262,7.305968828840117,7.140246562019223,-1.00833364841165,7.021578127772053
1778755641.992558,22.36837253934933,31.35301464286036,27.04866295567751,31.01725995832316,18.82146723162764,20.477071127901603,24.967848089544365,19.83468965679309,4.281837079621573,31.129856955058113,30.589845585813116,28.62040926188921,21.802486331289025,33.54662891643842,24.01717330782048,30.371970505990443,-0.532912314305215,21.695037960985054,15.968875503085018,29.531013299332674,19.73130312527337,-1.6592374072486118,28.79646290316554,20.39286050511745,28.380070144076765,26.65026494335962,0.0,16.79572958768623,29.85283676967738,27.001140905298897,21.327983245059645,31.383587412997215
1778755641.993058,18.886727540113355,40.56108991353848,36.34244667320944,45.35990076662603,17.397728703613144,25.905657230779216,23.1696316987835,26.41580066955531,-14.763292348649681,42.84529645193331,43.12069702828186,39.28815926537859,29.32397626114483,39.656509217820755,28.775825774755656,42.55029946820367,-0.08087969418878965,9.96058111324239,-6.019231394678938,35.921755150849364,10.682670285827433,-22.406755466054268,24.015401494739223,15.481344007029827,28.722307747463304,34.857510310928625,0.0,15.882982088366743,22.59459095933383,27.079623845107815,12.320051261978849,24.65987621700633
1778755641.993558,7.7631329615892515,42.470791530913544,37.298828549759705,53.742695756798184,8.29060474984476,25.1180748972144,11.8563198419401,25.450096856044865,-48.76100383349077,47.67304246011624,49.40131148969052,43.67675885498859,30.331173907162942,38.500258714250236,25.636811278375795,47.56059792054825,0.3230749452421521,-11.612859432440501,-36.604140448529876,35.69808202246956,-8.103979325225545,-56.523134242494294,10.645449507125178,3.4985408569224474,20.745161538485696,33.818832178349034,0.0,8.134852328110039,6.513881607017882,19.33858760935042,-5.355684793216911,5.826837339609994
1778755641.9940581,1.2191029829532347,40.23750934196342,35.0365349835781,55.71136116497898,3.4898044783272013,24.895567560834102,3.828053533291691,22.5638418827495,-71.65281317034614,47.72792123262937,50.77288069311579,45.04643697452684,29.979756181387952,36.57213690486907,21.897088340264546,47.50846378310783,0.85354748871326,-22.823715716910538,-51.541650769281105,33.62643043905599,-18.72950269480047,-74.42984140755217,3.126162746286399,-2.8496826450170074,14.891493254098982,29.52682668161119,0.0,3.410215409603729,-1.686714215399285,14.891790818780745,-14.466336079867476,-7.175818024023327
1778755641.994558,-4.53882687501018,35.80343722053514,30.81236354948202,52.0680141363109,-1.0132666778122164,22.83590333966941,-1.765712565832079,18.976241889369227,-85.81986345657589,45.09514818562258,48.794670781040196,43.886679615657656,27.177300356099355,33.71017308383633,18.263672629709582,44.562160138924625,1.1931290776061547,-29.417173838717535,-61.21483351485324,30.24852093117401,-25.204852953943377,-81.70962524170335,-2.1384810519776196,-8.459429049971218,9.745943078534557,25.060788875707274,0.0,-0.7036367127599087,-7.425631185353787,11.011051379971633,-21.485242394694094,-16.979855490082013
1778755641.995058,-15.273857541926915,34.9595010668191,27.661641469657564,50.75316471842901,-11.609225793476963,18.335075150016536,-10.018424156574389,15.257370420935098,-109.2931488385479,46.43067545727935,50.245076307853104,44.2307876524354,22.915116404551227,30.94997747462225,15.530313804558611,45.47421833210386,0.8029154428210908,-44.87729441492171,-84.9487116084901,29.37762688503961,-37.56359849012004,-100.62241556836958,-12.12218174611247,-19.914444808811567,3.120332658924998,23.90165218294022,0.0,-7.579615464021602,-20.599750232978682,3.44623370004313,-36.47361130407865,-32.262719118107064
1778755641.995558,-27.87217028515346,43.80045725100595,31.353956636943522,61.083715911572234,-25.271367236931972,16.908333108603784,-19.66249821652439,14.742655979285741,-149.59790625772456,58.450409344663925,62.5895063860247,52.563284147993116,23.221494963643945,33.13467979238572,18.158431160387398,57.3127233320288,0.26885102890751256,-69.4979760531168,-123.07090243261324,37.07815517428008,-55.01437817909481,-137.51785245776986,-24.149411608467844,-31.807485896513928,-1.0682004826813771,29.379983547399096,0.0,-13.343601665822174,-39.22944881430276,-4.006856142898653,-56.36938954146483,-52.40153311342125
1778755641.996058,-30.0973625913133,59.71988437524737,43.17570734600945,79.93188956490185,-26.999825670369813,25.233496082692344,-19.03449648625507,22.576672662245876,-181.12569516865187,76.88344304684033,81.70431051416051,68.2238014912415,32.79921601770415,44.06136040333263,29.052452518290572,75.84105778848459,0.07672235680589927,-79.15573164529197,-140.22060755885664,53.42186462388094,-58.77137445252047,-159.49497504507275,-23.366885444322946,-26.00504006769239,5.6418511256218835,41.16586126615472,0.0,-7.385570710746212,-43.85320272603617,-0.18677119292073793,-61.68674358339749,-60.07365492901425
1778755641.996558,-5.222194473807777,80.30358870419563,64.72414498145606,100.12740887810897,2.3858028564627825,50.784778625486034,8.885082660060313,44.87094126288376,-160.5436976217845,96.16039364842887,101.12011327710354,89.04831039140281,55.6791328198764,68.72305637336983,51.35040550101344,95.07018684745066,-0.42701476190343957,-40.47770415809589,-91.96666684723824,78.42078120536935,-22.754433604092743,-118.28229628483138,9.717503208531477,14.955362101251971,34.507452280096636,62.41578591361042,0.0,23.002262177931115,-8.017690598006162,29.124979169683332,-27.153606174219288,-28.751113095744024
1778755641.9970582,44.07855604884113,111.80780873927678,99.99599608882656,127.65016179140291,55.76499936392119,91.81373928308093,59.527146735079434,80.47480200524159,-99.00046493011374,123.81414730809286,128.46286138325266,119.82187085275592,92.55897580571701,108.86645813113847,87.15828766588061,122.9309261562303,-1.2603487589861013,32.02042349038301,-5.674115213934166,114.98254066786954,42.121158531041544,-33.7147548562884,67.39955525637122,75.08840322394528,82.28058449322448,98.39743099019962,0.0,71.99298006905839,58.43232952392373,80.21602151191139,36.979686376006185,34.587215617345585
1778755641.997558,82.37203096277086,149.55890947495865,137.7999091161516,164.66796710317413,91.78610606589781,125.709593457645,96.72689528804923,111.30899111624855,-72.14694253493377,160.66566646125352,166.13661964870897,155.9859074457744,127.4254710173623,148.17268050743988,123.03068982884695,161.14071001343402,-1.412664811163077,71.11617887359078,28.202166839799556,152.27823308740994,80.79012333767753,4.726998482292941,105.67911471921079,107.44311217015625,119.23673585792638,136.82493670657482,0.0,106.98945382364946,100.01905175178177,119.56435974336797,76.36865548179888,76.3770210574818
1778755641.998058,82.27902802910249,170.28878423452562,154.255884398441,190.4627846209231,86.30712866511396,131.6866908852023,97.18624886799475,118.45866876512287,-111.28311775641382,184.62930315730077,191.85047967557733,176.0396503070275,137.6173319154659,163.1265565475598,136.3228023311746,186.55853689387115,-0.9340770669592189,49.29899159268553,-12.865968308040518,167.98942142994164,67.29673867677153,-32.49911533498388,98.54716635028866,95.35485940315328,121.3030615910045,152.73918586842575,0.0,106.5823926852308,87.0099065941262,120.6971648146447,62.801415575096094,64.94064865713885
1778755641.998558,61.490571886265236,163.64570621097099,144.8577052060843,188.25257956999695,63.600451293324895,118.80673066838554,81.35021139492261,107.19401041413597,-158.1556270388757,180.8095050452326,188.33224377568627,169.3884469241971,124.3093027293334,153.4912578091047,125.32613879086657,182.06410892382385,-0.8950086707157708,14.833963238860317,-55.96590338113118,157.93989975737205,39.27536226362277,-74.61216508869144,72.01463501551439,73.22010349656563,101.68742303007886,141.97287179516596,0.0,88.65983600923484,54.48042826807713,98.87456140315622,31.543205287904595,32.035822874042175
1778755641.999058,50.21841043257506,145.0898578172666,127.2313853408918,168.15337909138313,53.49620296992952,107.8857980667234,76.08634874053094,95.77227732661405,-161.14741090812123,161.5541222710483,167.19030429230727,149.55279600538955,108.35919438550329,138.50533647319787,108.9659748360989,160.05711083098248,-1.1715691659675609,10.108667256955234,-53.20253815212668,138.71299792426146,33.909144779068235,-67.92291180463982,59.22874022197239,69.52566485885724,86.0183369948299,123.23532792297438,0.0,78.58293185801189,42.31932552748385,83.46676492051856,21.34534283395012,16.758823503573602
1778755641.999558,48.89800547703363,127.88733317443224,111.18484768008432,145.81196547995225,53.3862662868012,101.26974549675886,77.93050762281385,88.36570565331057,-137.18803525093742,141.48453781798534,145.05123278390852,130.4850933506221,98.48721409438961,126.46175413738032,96.64932455549997,137.74162113908122,-0.6863691689576282,21.402732958526915,-32.378728311768825,120.7725520621288,41.76767219262159,-37.64416500802812,58.35537058013502,73.61903554228732,77.08173757625738,107.60245799998849,0.0,75.18472908544824,45.596956330411686,77.80719301625915,25.645546270294524,15.81086968377487
1778755642.000058,41.055338864458,108.70521407234155,91.41016615614679,122.36551858856733,47.05664633611289,88.37388228502478,70.35211944922575,76.6484668176732,-122.07761186080066,119.41790628184552,122.61720027823038,110.9571109386894,85.42506061291105,109.38991435732848,81.37411098918764,116.13520546437994,0.25617929074953183,20.426936042712377,-28.943492113202314,100.77817708955972,38.53285858256979,-24.07932237507073,50.954377126081006,66.04317185622898,63.0696695592692,89.82683891745378,0.0,64.50719979580848,41.03257683831357,66.39696128748079,19.89829286418442,7.751502896152918
1778755642.0005581,25.329371982364485,83.5943286703594,65.85350315540485,93.74368113432351,33.52746619550136,66.77786450452506,52.660909725321844,58.11580943206361,-116.19910590146995,91.37842655087643,94.99611849792515,85.82372645437003,62.884947529217605,82.71056174441317,59.40569488590866,90.40442188941499,0.3242327089822227,8.143892690915095,-35.52415226684019,76.15794982228032,24.787234581246274,-24.541744494381536,34.62722099339226,49.01621642915723,42.61865539731945,66.12464196650207,0.0,46.366705194958634,25.658664780587426,44.81974010451895,3.381913486826508,-8.245048686917185
1778755642.001058,18.05457670167858,57.77865015397239,42.25482622593389,61.969914873803404,27.850498619061014,46.11957640296116,40.0546205593655,41.121761617643536,-89.5838161473593,61.6363199512519,63.679870739586576,57.45009668544697,38.9674427164229,54.868372325550446,39.13475856359752,61.426499538694316,-0.3056917044149803,10.820646276692438,-18.21625068772879,52.17484301284942,23.53814196732124,-3.5548316168757776,25.952820687090224,41.978627581038026,28.006211242745664,43.137239421618666,0.0,34.96211483910757,18.372795893734597,27.703371004139786,0.2082068396877346,-11.382465096879283
1778755642.001558,30.77448704053275,36.80304264429837,26.73904389080782,31.2102931121017,41.747355102626365,35.242751167852724,43.55974920832984,33.9425448208754,-20.345298025651207,35.248858805654876,32.90078664203092,31.19077965409489,24.265995045908703,36.09052162825626,28.815382715686965,32.92307058827432,-0.26318277649615035,46.73829384222507,42.01113087599412,34.0983625144255,50.200183040868744,62.48453250020611,38.32378044459248,56.95709429082617,28.81549550824806,27.809029662014428,0.0,39.579652405252396,35.78986763986005,28.929406618854085,27.214232784012975,13.372174479428057
1778755642.002058,53.825685196187344,19.94555841740688,16.223002310657964,2.9002108321999476,65.7805753296506,30.910631187777664,55.22674232023527,33.79172085428887,73.29134876604591,11.643348477509535,4.877987762379688,8.297177048268784,17.44231234131974,25.026420389504416,25.520396704300907,7.398261144571267,0.5187952350807671,98.07142357275238,120.1593675619739,20.098976717319907,89.70545144686179,149.71470761875406,61.871964712939246,80.41098212164445,38.48536360594953,18.08948052404417,0.0,51.41508929495783,68.72819153350488,41.37465795700705,68.57688153953231,53.08352556337022
1778755642.002558,64.7074812987551,2.3401757726494123,2.265172401757712,-23.497883172513,74.95022780866229,20.89343350836499,55.02328342939606,29.047685389576028,142.42116074112894,-12.103982345149934,-20.118363515881708,-13.748414077748304,7.763391954673918,11.121201077956695,18.56704564597924,-15.260136565101991,0.8172176823001183,123.70165392360742,164.19433562462424,3.53468764295011,108.08599273151187,202.04435714506116,70.61289799481911,84.352699544912,38.82484198917836,6.002152527004933,0.0,51.739606785540445,86.12934208873878,43.27487029488426,89.16151453606257,76.13242535246152
1778755642.003058,49.15060160507024,-24.084810971751534,-23.389512834850976,-53.015259413098825,54.547994559278536,-4.075410795238492,31.526527511718545,9.89965357145456,158.37476174976211,-41.28758744763182,-47.849623576481505,-40.922093877987265,-14.74989555106248,-14.472634080215062,-2.411598729914622,-42.14059605654664,0.35396963383865965,104.10835860019954,151.057903243656,-23.259361933486115,88.25136888550772,192.3088548534948,49.893735132963826,56.01798478243141,16.8176393001363,-16.708220172007582,0.0,29.934217476714334,67.98817729293569,21.385263632072316,71.77167422896105,63.87482089350041
1778755642.003558,13.51829314459701,-64.16981163418356,-62.21856973395763,-92.14570859726908,14.93239089082891,-41.50603086568581,-6.8579432384947125,-23.35942512926089,143.33795847144265,-81.00345875118168,-86.57716261373955,-78.45619301836498,-51.416597691084185,-51.713521744573306,-39.39662887301755,-81.54114967038664,0.00841981164775242,60.9287475715911,109.65577502502815,-63.179382768479115,46.251366899545715,151.69068772837525,10.94997507877389,10.044665697563808,-22.64953767657007,-52.795873721249976,0.0,-8.031999544919293,27.47535363324526,-17.641911971590325,32.325441712387814,28.10868828124722
1778755642.0040581,-20.814093511060573,-106.78208549438358,-101.56815691382661,-133.79615219925026,-20.61500484647567,-77.19734598131016,-40.93781284377928,-58.500570949169784,135.84585683244623,-123.05072118856425,-129.47617330524943,-118.1454370407519,-89.33286790453361,-89.02041946644603,-78.99522109480213,-124.69707551612393,-0.44717364224161416,27.260397936949623,79.50861536170784,-105.15075760684043,10.105913133381092,124.45311497705961,-23.181823421102397,-28.734601374173426,-59.811281501804665,-91.51457523335446,0.0,-44.81316630849028,-6.831928175444402,-54.33113310209367,-1.3395884141167713,-3.67667583332723
1778755642.004558,-42.2208732703073,-134.168832184492,-126.04335715266505,-160.70506172530307,-42.88186266196871,-100.558479468328,-63.3502712452849,-83.34089907609672,137.5261527138853,-150.49044332394087,-157.90250813193228,-143.97110655226732,-113.50994812997325,-114.32194319939177,-104.94337119477152,-151.8793427738119,-1.8117329949865495,6.392080338997357,60.54884218494804,-133.6287671975517,-13.447374988373213,109.44946981692706,-46.1721831191772,-53.989784863759766,-82.5934215444582,-117.67812765466694,0.0,-70.0245295345832,-28.0838161374163,-77.73671628276043,-22.324526944836936,-21.814611405627847
1778755642.005058,-62.430944419971354,-146.34730963470093,-138.20968376585853,-170.1985995454135,-64.93971185105055,-117.98717392897065,-86.1388545574852,-100.0437288556748,118.86380524097854,-161.47233088629412,-167.96245696410807,-155.70236062273653,-127.08573100388107,-131.0330437468098,-119.46778322489634,-161.21250550736912,-2.47690033135564,-25.17158450435151,23.014729560388105,-149.2509751441844,-41.56333880054114,72.09644373536813,-72.96633307025822,-81.00041611107457,-100.66315740381046,-132.16600647754734,0.0,-91.69739460373637,-55.59207006203489,-98.05644219021126,-48.20930751049647,-44.047004604173246
1778755642.005558,-88.19471198744975,-155.4465966986835,-149.00897609028806,-174.721509429906,-92.25746959109598,-135.88378578741631,-114.07514330921991,-115.15521745426261,78.95276847204893,-167.90223461978684,-171.76510293945873,-164.84656053862628,-140.16059852071763,-147.5404910342891,-132.84197488936113,-167.00843317599413,-0.6974747658284596,-67.67619115060155,-28.523256774509022,-160.71741882725362,-76.58828366504983,14.256753318087384,-105.33114972141541,-111.45018099461694,-121.46510555624478,-144.6951116992339,0.0,-115.0291803313885,-92.69076869810756,-122.28684082193051,-81.73876529973563,-76.4218495371824
1778755642.006058,-99.73012609660964,-163.44341881967523,-156.38610199467428,-180.93578769277138,-103.82270712912492,-143.87736220225162,-127.7595901515079,-123.91561323428537,64.58889415453802,-174.38184462387173,-176.5444456038142,-172.18292461945646,-147.62380039491168,-158.5584958687329,-140.94401712372317,-174.65787045108968,1.2168580182603996,-82.08025187994875,-40.559782135950435,-166.23296610859094,-88.50252422707169,-9.023404798008634,-117.05276892254497,-119.82015637179838,-130.43173827058817,-152.99169540937055,0.0,-124.5107781441268,-108.0994567965114,-133.1816501470485,-92.588452706449,-89.21624451970125
1778755642.006558,-80.10176779978497,-164.2321101499467,-152.35044847997466,-185.6334542411559,-81.92062788354647,-132.31077204504643,-110.54518762263999,-118.52841613127534,111.97586832061621,-176.54735994997247,-180.27936298559572,-170.83478807171363,-139.21676334820827,-154.40352380262078,-134.01390862886058,-178.0648363568917,0.4441055605128467,-42.669260389387595,17.442649247651207,-160.51398337829994,-55.814328679182324,38.75479853868515,-90.86739147912628,-91.39666198193963,-113.87495177161894,-148.3493424484971,0.0,-106.87337462477647,-78.45888756319238,-114.30836259375704,-59.05114113893424,-57.23225833936558
1778755642.0070581,-42.47279162330983,-154.8179469675563,-136.80917621031722,-181.8687179465447,-40.683659046085936,-108.23616349497892,-73.65307779139594,-100.90879998473693,194.21726437675753,-169.71239965337028,-176.72380857501943,-159.07914305001873,-117.19985947145814,-136.31394557128147,-113.63327810705565,-170.7224694033114,-1.4409257711828902,22.89169866127667,103.60955705725273,-144.64804661141744,-0.7152829485873158,120.99952151482647,-45.39801777590734,-47.68159939935774,-80.59664153479247,-130.23337377927155,0.0,-73.27051121486363,-23.52452355702013,-76.25413929633226,-2.1408289252633628,1.4557599824408216
