Timestamp,EMG_1,EMG_2,EMG_3,EMG_4,EMG_5,EMG_6,EMG_7,EMG_8,EMG_9,EMG_10,EMG_11,EMG_12,EMG_13,EMG_14,EMG_15,EMG_16,EMG_17,EMG_18,EMG_19,EMG_20,EMG_21,EMG_22,EMG_23,EMG_24,EMG_25,EMG_26,EMG_27,EMG_28,EMG_29,EMG_30,EMG_31,EMG_32
1778755610.934637,534.4348,532.7182,539.2985,563.6170000000001,379.3686,401.9705,297.54400000000004,470.3484,535.0070000000001,546.7371,565.0475,522.4186000000001,462.3376,419.1365,536.1514000000001,544.4483,4.2915,339.0285,287.5305,511.83290000000005,424.28630000000004,343.6061,416.56160000000006,302.97990000000004,557.6089000000001,557.3228,0.0,472.92330000000004,342.74780000000004,505.82480000000004,479.78970000000004,665.4686
1778755610.935137,452.038,452.038,478.93140000000005,532.4321,277.517,333.5926,228.30780000000001,407.4064,389.38210000000004,517.841,533.5765,486.0839,393.38750000000005,385.6628,477.2148,516.6966,5.4359,289.5332,146.76930000000002,490.66150000000005,298.97450000000003,201.9866,369.35510000000005,240.61010000000002,501.2472,511.5468,0.0,387.09330000000006,285.24170000000004,435.73030000000006,378.51030000000003,542.4456
1778755610.935637,362.7748,361.0582,404.25930000000005,489.23100000000005,177.382,264.64250000000004,171.9461,338.74240000000003,254.0568,473.7816,492.3781,440.59400000000005,321.2903,348.18370000000004,407.12030000000004,478.35920000000004,5.149800000000001,236.6047,13.446700000000002,454.6129,177.382,74.0999,319.0015,177.0959,429.72220000000004,455.18510000000003,0.0,296.6857,230.59660000000002,359.91380000000004,273.2255,414.845
1778755610.936137,266.3591,265.2147,324.7235,439.7357,78.9636,188.82600000000002,118.73150000000001,266.07300000000004,121.30640000000001,421.1392,442.3106,391.6709,245.75990000000002,309.27410000000003,327.58450000000005,431.15270000000004,4.0054,182.2457,-116.4427,407.69250000000005,54.931200000000004,-52.07020000000001,264.07030000000003,106.42920000000001,356.1945,393.38750000000005,0.0,202.55880000000002,169.65730000000002,278.6614,165.3658,282.38070000000005
1778755610.9366372,165.0797,164.79360000000003,237.74910000000003,386.8072,-28.323900000000002,109.5763,63.228100000000005,186.2511,-24.6046,363.0609,387.37940000000003,340.1729,167.0824,266.64520000000005,243.7572,380.7991,3.7193000000000005,120.44810000000001,-261.7815,358.48330000000004,-78.9636,-193.97580000000002,207.70860000000002,28.8961,276.0865,324.7235,0.0,95.27130000000001,109.29020000000001,187.39550000000003,43.201100000000004,138.47240000000002
1778755610.9371371,36.0486,32.901500000000006,123.88130000000001,314.4239,-157.35500000000002,13.446700000000002,-1.1444,85.54390000000001,-196.8368,285.81390000000005,315.5683,271.50890000000004,68.0918,213.43060000000003,136.75580000000002,310.9907,5.149800000000001,42.342800000000004,-442.02450000000005,288.961,-245.1877,-367.0663,133.32260000000002,-71.81110000000001,166.51020000000003,236.03250000000003,0.0,-41.19840000000001,34.618100000000005,68.9501,-111.00680000000001,-47.4926
1778755610.937637,-113.29560000000001,-114.7261,-8.0108,222.8719,-304.41040000000004,-100.9933,-75.5304,-30.326600000000003,-380.2269,190.25650000000002,219.4387,180.24300000000002,-49.781400000000005,143.05,7.438600000000001,220.01090000000002,4.2915,-48.064800000000005,-635.7142,203.13100000000003,-423.1419,-547.8815000000001,38.6235,-187.9677,41.19840000000001,127.60060000000001,0.0,-190.54260000000002,-59.794900000000005,-68.37790000000001,-285.24170000000004,-253.7707
1778755610.938137,-263.7842,-264.64250000000004,-141.3334,128.1728,-455.4712,-216.57770000000002,-153.92180000000002,-145.05270000000002,-563.3309,93.55470000000001,115.0122,87.26050000000001,-169.65730000000002,71.2389,-122.16470000000001,130.7477,5.722,-142.7639,-830.8344000000001,113.29560000000001,-600.2378,-730.6994000000001,-52.356300000000005,-306.127,-85.2578,8.583,0.0,-342.74780000000004,-151.0608,-204.56150000000002,-465.19860000000006,-463.76810000000006
1778755610.938637,-393.95970000000005,-393.6736,-265.2147,30.8988,-577.6359,-316.71270000000004,-218.58040000000003,-246.33210000000003,-713.8195000000001,-5.722,6.2942,-6.2942,-275.8004,1.7166000000000001,-241.46840000000003,38.3374,6.5803,-220.01090000000002,-963.8709000000001,20.599200000000003,-747.0071,-872.3189000000001,-139.6168,-393.38750000000005,-202.55880000000002,-106.1431,0.0,-468.3457,-229.7383,-324.15130000000005,-609.1069,-641.1501000000001
1778755610.939137,-474.92600000000004,-473.7816,-354.1918,-73.2416,-615.4011,-370.4995,-252.0541,-316.4266,-760.4538,-110.72070000000001,-107.8597,-100.42110000000001,-351.903,-68.664,-329.01500000000004,-62.94200000000001,5.722,-257.77610000000004,-940.6968,-74.0999,-793.0692,-899.7845000000001,-208.28080000000003,-407.12030000000004,-290.9637,-205.1337,0.0,-524.7074,-275.51430000000005,-400.82610000000005,-666.0408000000001,-733.5604000000001
1778755610.9396372,-528.4267,-528.4267,-418.2782,-161.9326,-622.5536000000001,-405.9759,-272.3672,-367.0663,-761.8843,-195.97850000000003,-200.27,-177.382,-401.3983,-129.3172,-395.6763,-150.77470000000002,4.863700000000001,-285.5278,-895.493,-157.0689,-792.7831000000001,-881.4741,-258.9205,-413.7006,-359.6277,-280.0919,0.0,-559.3255,-308.41580000000005,-451.75190000000003,-690.0732,-784.7723000000001
1778755610.9401371,-560.4699,-560.4699,-462.05150000000003,-210.2835,-616.8316000000001,-422.5697,-278.0892,-395.6763,-757.3067000000001,-247.76260000000002,-250.6236,-218.8665,-426.86120000000005,-169.37120000000002,-434.872,-201.9866,5.722,-298.6884,-864.3081000000001,-208.853,-785.9167000000001,-856.8695,-288.3888,-414.55890000000005,-398.82340000000005,-322.7208,0.0,-579.9247,-321.57640000000004,-482.0785,-702.0894000000001,-813.6684
1778755610.940637,-580.4969000000001,-579.3525000000001,-502.10550000000006,-245.1877,-612.5401,-431.4388,-281.5224,-413.7006,-749.5820000000001,-283.81120000000004,-281.5224,-248.907,-443.7411,-193.97580000000002,-460.62100000000004,-237.46300000000002,4.863700000000001,-307.5575,-836.2703,-245.75990000000002,-769.0368000000001,-833.1232000000001,-310.1324,-417.1338,-421.7114,-352.47520000000003,0.0,-590.5104,-327.01230000000004,-500.38890000000004,-707.2392000000001,-823.6819
1778755610.941137,-615.9733,-614.2567,-555.3201,-304.6965,-630.2783000000001,-464.62640000000005,-306.6992,-453.18240000000003,-763.0287000000001,-341.31730000000005,-335.5953,-301.8355,-485.22560000000004,-240.89620000000002,-502.10550000000006,-296.11350000000004,4.863700000000001,-338.74240000000003,-831.1205000000001,-302.6938,-781.6252000000001,-834.5537,-351.04470000000003,-444.02720000000005,-467.20130000000006,-403.9732,0.0,-619.9787,-355.90840000000003,-539.0124000000001,-732.416,-852.5780000000001
1778755610.941637,-674.9099,-676.3404,-625.9868,-384.8045,-672.335,-526.9962,-361.34430000000003,-514.98,-800.7939,-419.7087,-415.1311,-378.7964,-552.4591,-314.1378,-572.2,-380.2269,4.2915,-395.39020000000005,-850.5753000000001,-382.8018,-819.3904000000001,-864.3081000000001,-417.99210000000005,-498.67230000000006,-539.0124000000001,-480.93410000000006,0.0,-674.6238000000001,-413.41450000000003,-603.3849,-780.4808,-903.2177
1778755610.942137,-668.9018000000001,-670.6184000000001,-633.4254000000001,-403.9732,-663.4659,-531.5738,-365.92190000000005,-516.6966,-779.3364,-440.02180000000004,-436.3025,-397.39290000000005,-558.1811,-334.45090000000005,-576.4915000000001,-398.5373,5.4359,-402.25660000000005,-816.8155,-403.401,-798.219,-835.9842000000001,-431.72490000000005,-497.2418,-549.0259000000001,-494.66690000000006,0.0,-670.0462,-418.2782,-611.1096,-773.6144,-894.3486
1778755610.942637,-661.7493000000001,-664.0381000000001,-636.0003,-417.706,-652.308,-533.2904000000001,-370.78560000000004,-518.6993,-759.8816,-450.32140000000004,-450.6075,-410.2674,-560.1838,-350.18640000000005,-577.6359,-411.6979,6.8664000000000005,-404.8315,-789.0638,-417.99210000000005,-774.1866000000001,-805.3715000000001,-440.3079,-492.09200000000004,-551.3147,-498.10010000000005,0.0,-656.8856000000001,-422.85580000000004,-612.5401,-761.3121000000001,-880.3297000000001
1778755610.9431372,-637.7169,-637.7169,-615.4011,-417.41990000000004,-625.9868,-513.5495000000001,-352.47520000000003,-497.814,-718.9693000000001,-440.59400000000005,-441.45230000000004,-405.4037,-542.4456,-340.1729,-557.0367,-405.9759,4.863700000000001,-385.09060000000005,-735.277,-411.4118,-728.6967000000001,-756.1623000000001,-426.28900000000004,-464.05420000000004,-534.1487000000001,-482.93680000000006,0.0,-625.4146000000001,-400.54,-588.2216000000001,-726.9801000000001,-847.7143000000001
1778755610.9436371,-611.1096,-610.2513,-593.9436000000001,-413.98670000000004,-592.5131,-487.80050000000006,-327.01230000000004,-472.6372,-675.196,-430.58050000000003,-428.86390000000006,-395.1041,-520.702,-325.00960000000003,-538.1541000000001,-399.9678,6.2942,-364.2053,-677.7709000000001,-397.39290000000005,-682.3485000000001,-702.3755000000001,-407.4064,-436.01640000000003,-512.4051000000001,-466.343,0.0,-593.9436000000001,-374.79100000000005,-559.8977,-689.2149000000001,-807.6603
1778755610.944137,-581.0691,-579.3525000000001,-567.9085,-397.67900000000003,-552.7452000000001,-457.76000000000005,-298.97450000000003,-445.7438,-626.8451,-416.56160000000006,-404.25930000000005,-375.07710000000003,-490.08930000000004,-306.41310000000004,-513.2634,-387.37940000000003,4.863700000000001,-335.88140000000004,-622.5536000000001,-376.7937,-633.4254000000001,-651.4497,-381.94350000000003,-404.8315,-486.0839,-435.15810000000005,0.0,-559.3255,-346.18100000000004,-528.7128,-644.2972000000001,-763.3148000000001
1778755610.944637,-584.7884,-584.7884,-573.6305000000001,-417.99210000000005,-547.0232000000001,-459.19050000000004,-282.9529,-450.89360000000005,-608.5347,-434.58590000000004,-409.4091,-381.94350000000003,-493.52250000000004,-305.5548,-518.6993,-400.54,4.2915,-332.44820000000004,-603.3849,-385.6628,-621.6953000000001,-634.8559,-382.8018,-404.54540000000003,-494.3808,-434.58590000000004,0.0,-561.3282,-341.8895,-533.8626,-642.0084,-763.0287000000001
1778755610.945137,-604.2432,-604.8154000000001,-590.5104,-471.2067,-554.7479000000001,-476.07040000000006,-280.37800000000004,-464.9125,-605.9598000000001,-463.482,-420.28090000000003,-404.25930000000005,-513.8356,-317.28490000000005,-540.1568000000001,-419.42260000000005,5.149800000000001,-343.0339,-607.1042,-405.4037,-623.4119000000001,-634.2837000000001,-393.1014,-415.98940000000005,-515.2661,-449.74920000000003,0.0,-574.4888000000001,-344.4644,-552.4591,-656.0273000000001,-778.192
1778755610.945637,-616.5455000000001,-617.4038,-589.9382,-514.1217,-556.7506000000001,-489.80320000000006,-283.5251,-472.92330000000004,-596.8046,-476.6426,-428.86390000000006,-419.42260000000005,-527.8545,-333.02040000000005,-552.173,-430.58050000000003,5.722,-349.61420000000004,-601.3822,-426.28900000000004,-616.2594,-621.4092,-400.82610000000005,-420.28090000000003,-530.4294,-462.05150000000003,0.0,-578.2081000000001,-344.4644,-562.1865,-662.3215,-786.7750000000001
1778755610.946137,-604.8154000000001,-604.8154000000001,-563.3309,-510.40240000000006,-524.7074,-476.6426,-280.37800000000004,-467.48740000000004,-558.4672,-476.07040000000006,-434.872,-421.42530000000005,-518.9854,-340.459,-546.7371,-436.3025,4.5776,-347.8976,-555.034,-438.59130000000005,-577.3498000000001,-579.6386,-399.1095,-404.25930000000005,-529.8572,-464.62640000000005,0.0,-556.4645,-336.45360000000005,-545.8788000000001,-634.2837000000001,-758.7372
1778755610.9466372,-531.5738,-529.5711,-492.66420000000005,-490.3754,-402.25660000000005,-406.26200000000006,-242.0406,-421.42530000000005,-419.1365,-472.6372,-438.3052,-411.98400000000004,-459.4766,-338.1702,-504.1082,-444.88550000000004,5.722,-299.8328,-345.0366,-442.88280000000003,-441.16620000000006,-420.28090000000003,-368.4968,-303.83820000000003,-486.37000000000006,-454.0407,0.0,-466.343,-287.24440000000004,-469.7762,-503.82210000000003,-630.5644000000001
1778755610.947137,-357.625,-356.48060000000004,-347.8976,-465.7708,-141.90560000000002,-258.3483,-154.20790000000002,-302.97990000000004,-102.7099,-451.1797,-432.58320000000003,-387.6655,-335.5953,-328.7289,-391.0987,-449.46310000000005,5.149800000000001,-188.82600000000002,99.2767,-436.8747,-128.4589,-71.525,-295.8274,-96.7018,-378.22420000000005,-406.26200000000006,0.0,-260.9232,-185.965,-309.5602,-223.73020000000002,-340.74510000000004
1778755610.947637,-135.8975,-136.75580000000002,-148.1998,-383.94620000000003,133.8948,-90.4076,-52.07020000000001,-143.62220000000002,238.3213,-368.4968,-359.6277,-313.85170000000005,-175.3793,-280.9502,-226.59120000000001,-389.95430000000005,6.2942,-62.94200000000001,514.98,-374.5049,211.71400000000003,298.97450000000003,-187.9677,98.1323,-219.72480000000002,-298.4023,0.0,-19.7409,-61.22540000000001,-109.00410000000001,82.96900000000001,-0.2861
1778755610.948137,67.8057,69.5223,25.749000000000002,-295.2552,356.7667,59.50880000000001,41.484500000000004,8.0108,527.2823000000001,-272.0811,-282.6668,-230.0244,-28.8961,-214.86110000000002,-62.08370000000001,-312.1351,7.152500000000001,48.637,834.5537,-294.68300000000005,495.23910000000006,601.3822,-83.5412,256.0595,-63.228100000000005,-182.5318,0.0,194.548,52.356300000000005,72.3833,345.0366,301.54940000000005
1778755610.948637,267.2174,265.5008,176.52370000000002,-204.27540000000002,547.0232000000001,197.9812,135.03920000000002,154.494,786.7750000000001,-165.93800000000002,-205.7059,-145.05270000000002,115.0122,-141.0473,98.9906,-228.30780000000001,4.863700000000001,157.35500000000002,1093.1881,-206.27810000000002,738.138,857.7278000000001,20.313100000000002,388.52380000000005,84.3995,-64.3725,0.0,390.2404,157.64110000000002,238.03520000000003,572.2,562.7587000000001
1778755610.949137,442.02450000000005,439.44960000000003,317.28490000000005,-100.7072,697.2257000000001,320.71810000000005,216.57770000000002,289.24710000000005,994.7697000000001,-48.3509,-107.0014,-47.4926,246.9043,-59.2227,248.6209,-124.16740000000001,3.7193000000000005,254.62900000000002,1274.8616000000002,-110.14850000000001,932.3999000000001,1052.2758000000001,121.8786,490.66150000000005,222.8719,56.647800000000004,0.0,553.8896000000001,252.3402,384.2323,758.1650000000001,784.7723000000001
1778755610.9496372,586.505,583.9301,447.1743,14.877200000000002,813.3823000000001,424.0002,286.67220000000003,401.3983,1146.9749000000002,72.66940000000001,10.8718,58.6505,364.77750000000003,24.032400000000003,384.2323,-8.0108,4.5776,334.1648,1388.7294000000002,-3.4332000000000003,1074.8777,1187.6011,217.436,569.9112,353.3335,179.95690000000002,0.0,687.2122,331.5899,513.8356,908.6536000000001,972.7400000000001
1778755610.9501371,696.3674000000001,695.5091000000001,548.4537,123.5952,887.7683000000001,503.82210000000003,339.88680000000005,493.52250000000004,1251.4014000000002,178.8125,129.0311,159.9299,460.62100000000004,101.56550000000001,497.2418,96.98790000000001,5.722,398.82340000000005,1450.527,97.274,1164.9992,1272.2867,299.8328,629.1339,468.91790000000003,289.8193,0.0,788.2055,395.9624,618.5482000000001,1020.2326,1119.7954
1778755610.950637,758.1650000000001,759.0233000000001,611.3957,216.29160000000002,908.0814,553.0313,373.64660000000003,552.7452000000001,1286.0195,260.0649,231.4549,244.04330000000002,526.9962,172.5183,571.9139,187.6816,4.5776,435.15810000000005,1426.7807,184.8206,1188.7455,1281.1558,365.0636,648.8748,549.8842000000001,377.9381,0.0,838.5591000000001,433.72760000000005,681.4902000000001,1067.153,1196.4702
1778755610.945174,805.6576,808.5186000000001,670.6184000000001,309.5602,919.5254000000001,595.3741,408.2647,605.6737,1294.0303000000001,346.18100000000004,333.5926,328.44280000000003,589.9382,246.9043,638.003,278.94750000000005,4.863700000000001,469.49010000000004,1379.8603,275.51430000000005,1191.3204,1263.4176,427.14730000000003,661.1771,621.1231,456.61560000000003,0.0,875.1799000000001,472.92330000000004,730.6994000000001,1092.902,1243.1045000000001
1778755610.945674,858.8722,860.0166,732.1299,410.2674,935.547,645.7277,454.32680000000005,662.6076,1301.755,441.16620000000006,433.4415,421.7114,656.0273000000001,326.154,707.2392000000001,377.07980000000003,4.2915,511.5468,1335.8009000000002,370.4995,1190.7482,1239.6713000000002,488.3727,682.3485000000001,692.3620000000001,543.59,0.0,910.9424,519.5576000000001,785.0584,1114.6456,1283.4446
1778755610.946174,892.0598000000001,892.3459,775.9032000000001,488.9449,937.2636000000001,678.057,480.0758,701.8033,1286.5917000000002,511.83290000000005,507.5414,496.3835,706.9531000000001,387.37940000000003,753.0152,454.0407,3.7193000000000005,542.1595000000001,1287.1639,444.59940000000006,1174.4405000000002,1206.4837,532.1460000000001,692.9342,740.7129000000001,607.1042,0.0,927.8223,548.4537,816.8155,1120.9398,1299.4662
1778755610.9466739,868.0274000000001,866.0247,771.0395000000001,533.5765,880.6158,667.7574000000001,469.49010000000004,695.7952,1199.9034000000001,551.6008,547.0232000000001,533.8626,711.5307,419.42260000000005,753.3013000000001,499.2445,4.0054,529.5711,1148.4054,480.648,1090.8993,1103.4877000000001,542.1595000000001,645.7277,742.4295000000001,628.5617000000001,0.0,886.9100000000001,537.5819,801.9383,1063.7198,1245.3933000000002
1778755610.947174,795.0719,794.7858000000001,727.8384000000001,569.0529,758.7372,625.1285,434.01370000000003,654.3107,1040.5457000000001,574.2027,577.922,561.3282,684.0651,446.6021,716.6805,538.4402,4.2915,487.22830000000005,905.7926000000001,511.5468,926.1057000000001,909.7980000000001,534.4348,553.3174,711.8168000000001,629.1339,0.0,794.4997000000001,502.10550000000006,753.0152,941.2690000000001,1115.5039000000002
1778755610.947674,700.3728000000001,700.0867000000001,672.335,587.3633000000001,620.837,564.4753000000001,387.95160000000004,595.3741,844.8533000000001,584.5023,595.0880000000001,576.4915000000001,641.7223,461.76540000000006,660.6049,563.6170000000001,4.863700000000001,439.44960000000003,653.7385,531.2877000000001,733.5604000000001,689.5010000000001,513.5495000000001,460.9071,663.4659,613.1123,0.0,680.918,458.61830000000003,686.0678,792.7831000000001,953.8574000000001
1778755610.948174,581.6413,581.0691,585.0745000000001,558.4672,467.48740000000004,472.6372,319.8598,505.25260000000003,643.1528000000001,550.7425000000001,565.0475,543.59,544.4483,432.8693,572.4861000000001,536.1514000000001,5.722,364.77750000000003,415.7033,506.1109,537.0097000000001,471.2067,455.18510000000003,355.62230000000005,580.2108000000001,561.0421,0.0,545.0205000000001,386.8072,579.9247,626.8451,770.1812000000001
1778755610.948674,487.5144,488.65880000000004,509.83020000000005,531.0016,344.17830000000004,391.95700000000005,256.6317,430.8666,476.6426,519.8437,537.0097000000001,503.82210000000003,438.8774,397.9651,499.8167,509.5441,4.2915,300.6911,232.59930000000003,485.22560000000004,377.65200000000004,300.97720000000004,394.81800000000004,270.3645,507.5414,513.2634,0.0,437.16080000000005,317.8571,479.78970000000004,485.22560000000004,619.6926000000001
1778755610.949174,405.11760000000004,406.26200000000006,446.6021,503.2499,243.7572,322.4347,190.82870000000003,368.78290000000004,331.3038,490.08930000000004,508.68580000000003,463.19590000000005,351.61690000000004,360.48600000000005,440.3079,486.37000000000006,4.5776,243.7572,85.2578,459.4766,244.04330000000002,156.4967,337.31190000000004,195.69240000000002,444.59940000000006,468.3457,0.0,349.04200000000003,254.91510000000002,390.52650000000006,364.4914,496.3835
1778755610.949674,326.44010000000003,326.7262,380.2269,469.204,153.0635,260.351,141.61950000000002,309.84630000000004,203.7032,454.89900000000006,474.35380000000004,427.4334,289.8193,330.7316,377.07980000000003,457.18780000000004,4.863700000000001,193.1175,-38.6235,425.71680000000003,124.4535,28.8961,287.8166,135.03920000000002,381.94350000000003,421.42530000000005,0.0,262.9259,201.9866,315.8544,255.4873,379.9408
1778755610.950174,242.61280000000002,243.18500000000003,309.84630000000004,427.71950000000004,59.50880000000001,198.2673,95.27130000000001,247.1904,78.3914,410.8396,431.72490000000005,387.37940000000003,235.74640000000002,301.8355,304.98260000000005,418.85040000000004,4.5776,145.05270000000002,-159.07160000000002,390.81260000000003,4.863700000000001,-95.8435,240.324,78.1053,320.71810000000005,368.78290000000004,0.0,170.5156,152.7774,241.7545,152.49130000000002,258.6344
1778755610.950674,153.6357,153.6357,236.3186,383.94620000000003,-36.0486,129.3172,51.21190000000001,179.0986,-52.07020000000001,369.9273,388.2377,346.4671,177.382,270.93670000000003,232.31320000000002,379.65470000000005,4.2915,95.8435,-292.3942,353.9057,-116.15660000000001,-225.73290000000003,189.9704,10.585700000000001,256.3456,312.4212,0.0,74.6721,104.99870000000001,164.79360000000003,41.484500000000004,127.31450000000001
1778755610.951174,32.901500000000006,35.1903,132.1782,315.8544,-161.9326,34.9042,0.8583000000000001,88.11880000000001,-213.14450000000002,302.40770000000003,324.15130000000005,284.6695,85.2578,228.88000000000002,131.60600000000002,322.14860000000004,4.863700000000001,31.471000000000004,-471.7789,294.9691,-266.64520000000005,-383.08790000000005,125.3118,-86.9744,152.20520000000002,229.4522,0.0,-49.4953,40.3401,58.6505,-111.57900000000001,-51.498000000000005
1778755610.951674,-103.28210000000001,-102.99600000000001,9.4413,231.741,-300.97720000000004,-75.24430000000001,-63.228100000000005,-12.3023,-385.94890000000004,217.436,237.74910000000003,199.41170000000002,-26.893400000000003,166.7963,15.163300000000001,245.4738,4.5776,-44.631600000000006,-667.4713,221.72750000000002,-428.29170000000005,-551.0286000000001,49.2092,-198.5534,20.599200000000003,130.7477,0.0,-184.8206,-39.767900000000004,-66.9474,-298.4023,-254.91510000000002
1778755610.952174,-247.1904,-248.33480000000003,-118.73150000000001,139.3307,-446.6021,-191.4009,-138.18630000000002,-122.45080000000002,-564.1892,125.02570000000001,144.4805,103.85430000000001,-143.9083,96.7018,-104.71260000000001,159.6438,5.149800000000001,-128.4589,-867.4552000000001,141.61950000000002,-596.5185,-723.8330000000001,-35.476400000000005,-311.84900000000005,-101.27940000000001,29.754400000000004,0.0,-325.00960000000003,-123.88130000000001,-199.41170000000002,-488.65880000000004,-469.7762
1778755610.952674,-385.09060000000005,-383.94620000000003,-246.33210000000003,36.9069,-570.4834000000001,-297.54400000000004,-207.1364,-233.4576,-716.6805,19.1687,37.4791,3.4332000000000003,-258.6344,19.454800000000002,-229.7383,58.078300000000006,5.149800000000001,-205.99200000000002,-1001.35,50.0675,-740.4268000000001,-864.3081000000001,-126.45620000000001,-397.1068,-205.4198,-82.11070000000001,0.0,-454.32680000000005,-207.4225,-324.7235,-641.1501000000001,-663.7520000000001
1778755610.9531739,-483.509,-481.5063,-348.75590000000005,-80.39410000000001,-619.6926000000001,-368.4968,-256.3456,-321.2903,-777.0476000000001,-99.8489,-89.5493,-101.27940000000001,-348.4698,-73.52770000000001,-337.31190000000004,-63.5142,4.2915,-262.9259,-986.4728000000001,-64.0864,-794.7858000000001,-896.9235000000001,-208.28080000000003,-420.28090000000003,-303.266,-195.97850000000003,0.0,-530.4294,-274.0838,-415.41720000000004,-705.5226,-765.6036
1778755610.953674,-553.6035,-553.0313,-427.4334,-181.67350000000002,-639.4335000000001,-424.0002,-292.3942,-385.3767,-798.7912,-205.1337,-196.5507,-192.54530000000003,-417.1338,-153.92180000000002,-423.42800000000005,-169.94340000000003,3.4332000000000003,-309.5602,-947.2771,-171.08780000000002,-810.2352000000001,-892.3459,-277.80310000000003,-438.8774,-390.52650000000006,-293.8247,0.0,-583.3579000000001,-325.2957,-484.36730000000006,-737.8519,-825.3985
1778755610.954174,-620.5509000000001,-619.9787,-503.53600000000006,-267.2174,-666.613,-475.2121,-329.87330000000003,-447.7465,-826.8290000000001,-294.68300000000005,-287.5305,-271.2228,-476.92870000000005,-223.44410000000002,-495.23910000000006,-259.4927,3.7193000000000005,-359.05550000000005,-942.9856000000001,-260.63710000000003,-835.1259000000001,-904.076,-341.0312,-477.50090000000006,-469.204,-379.3686,0.0,-634.5698000000001,-375.64930000000004,-547.8815000000001,-777.9059000000001,-886.6239
1778755610.954674,-656.3134,-657.4578,-545.5927,-321.0042,-684.0651,-504.1082,-355.3362,-486.65610000000004,-837.4147,-348.18370000000004,-342.74780000000004,-320.14590000000004,-514.6939,-270.6506,-539.8707,-316.14050000000003,3.4332000000000003,-390.52650000000006,-930.6833,-316.9988,-843.7089000000001,-903.2177,-383.374,-499.53060000000005,-514.1217,-432.58320000000003,0.0,-662.6076,-403.68710000000004,-582.2135000000001,-795.6441000000001,-914.6617000000001
1778755610.955174,-671.4767,-670.9045000000001,-564.7614000000001,-356.7667,-679.4875000000001,-517.5549000000001,-371.0717,-505.82480000000004,-832.2649,-384.2323,-379.65470000000005,-349.9003,-532.1460000000001,-298.11620000000005,-558.1811,-350.4725,4.0054,-402.5427,-903.7899000000001,-352.47520000000003,-838.273,-886.6239,-407.69250000000005,-505.25260000000003,-534.7209,-456.9017,0.0,-670.6184000000001,-414.55890000000005,-598.2351,-793.6414000000001,-916.0922
1778755610.955674,-687.7844,-688.0705,-587.3633000000001,-391.6709,-680.6319000000001,-535.2931000000001,-380.7991,-522.7047,-830.5483,-417.1338,-412.8423,-384.51840000000004,-550.1703,-327.58450000000005,-578.4942000000001,-390.81260000000003,4.0054,-415.98940000000005,-878.0409000000001,-382.8018,-831.9788000000001,-872.605,-428.29170000000005,-514.98,-557.3228,-481.79240000000004,0.0,-678.057,-427.4334,-614.5428,-795.3580000000001,-920.3837000000001
1778755610.956174,-724.4052,-725.5496,-628.5617000000001,-444.88550000000004,-698.3701000000001,-569.339,-410.8396,-560.7560000000001,-835.9842000000001,-468.3457,-467.7735,-435.4442,-589.0799000000001,-377.07980000000003,-621.4092,-451.1797,4.2915,-450.89360000000005,-869.4579000000001,-435.4442,-839.1313,-869.1718000000001,-469.204,-538.7263,-598.2351,-528.4267,0.0,-703.806,-462.05150000000003,-650.0192000000001,-815.6711,-944.4161
1778755610.9566739,-718.9693000000001,-720.1137000000001,-635.4281000000001,-464.9125,-684.6373000000001,-573.3444000000001,-414.55890000000005,-565.0475,-810.8074,-488.3727,-488.9449,-452.6102,-595.3741,-389.096,-625.9868,-460.9071,6.5803,-457.18780000000004,-836.2703,-453.75460000000004,-816.2433000000001,-837.1286,-480.36190000000005,-536.1514000000001,-605.3876,-542.1595000000001,0.0,-697.7979,-464.05420000000004,-652.0219000000001,-803.0827,-935.2609000000001
1778755610.957174,-725.5496,-728.4106,-654.3107,-491.8059,-683.2068,-586.505,-430.8666,-580.4969000000001,-812.8101,-514.1217,-514.98,-480.0758,-610.5374,-416.2755,-642.8667,-484.0812,7.152500000000001,-476.6426,-823.6819,-481.79240000000004,-807.9464,-824.2541000000001,-503.53600000000006,-549.0259000000001,-623.1258,-566.4780000000001,0.0,-704.6643,-473.7816,-663.4659,-804.7993,-935.547
1778755610.957674,-763.8870000000001,-763.0287000000001,-699.5145,-538.7263,-706.3809,-625.1285,-475.2121,-619.9787,-832.551,-565.9058,-563.9031,-530.1433000000001,-648.8748,-469.49010000000004,-683.4929000000001,-541.0151000000001,5.722,-513.8356,-827.1151000000001,-533.0043000000001,-821.1070000000001,-833.4093,-541.5873,-583.9301,-659.4605,-613.1123,0.0,-736.1353,-511.5468,-697.7979,-826.8290000000001,-955.5740000000001
1778755610.958174,-752.4430000000001,-749.8681,-700.0867000000001,-541.3012,-689.7871,-617.4038,-465.7708,-613.9706,-801.9383,-573.3444000000001,-566.7641,-530.4294,-639.7196,-471.7789,-676.9126,-543.8761000000001,5.722,-507.5414,-790.2082,-538.7263,-794.7858000000001,-797.0746,-539.2985,-568.7668,-653.4524,-607.6764000000001,0.0,-719.8276000000001,-506.39700000000005,-688.6427000000001,-806.2298000000001,-931.5416
1778755610.958674,-770.1812000000001,-771.0395000000001,-734.1326,-573.9166,-702.0894000000001,-630.5644000000001,-465.7708,-630.2783000000001,-803.6549000000001,-604.5293,-598.2351,-557.3228,-662.3215,-485.79780000000005,-699.2284000000001,-570.7695,4.863700000000001,-518.4132000000001,-789.6360000000001,-567.9085,-797.3607000000001,-794.4997000000001,-554.7479000000001,-584.7884,-680.0597,-633.7115,0.0,-735.8492000000001,-519.8437,-710.1002000000001,-819.9626000000001,-950.9964000000001
1778755610.959174,-803.0827,-804.7993,-778.7642000000001,-624.8424,-725.5496,-654.8829000000001,-472.35110000000003,-655.7412,-812.8101,-647.7304,-645.4416,-596.2324000000001,-692.3620000000001,-507.82750000000004,-735.277,-612.8262000000001,4.863700000000001,-541.0151000000001,-809.663,-604.5293,-811.6657,-809.0908000000001,-580.4969000000001,-613.1123,-720.6859000000001,-675.7682000000001,0.0,-763.0287000000001,-538.1541000000001,-743.86,-848.5726000000001,-992.1948000000001
1778755610.959674,-808.5186000000001,-809.3769000000001,-796.5024000000001,-651.7358,-728.6967000000001,-655.4551,-464.62640000000005,-658.3161,-804.2271000000001,-666.0408000000001,-668.6157000000001,-611.6818000000001,-695.2230000000001,-514.1217,-745.5766000000001,-636.0003,5.4359,-547.3093,-801.3661000000001,-621.9814,-808.2325000000001,-799.6495000000001,-587.6494,-618.8343000000001,-736.9936,-690.9315,0.0,-767.3202,-536.4375,-751.2986000000001,-853.4363000000001,-1003.9249000000001
1778755610.960174,-751.0125,-753.0152,-748.4376000000001,-627.4173000000001,-673.1933,-612.254,-419.99480000000005,-610.8235000000001,-728.9828,-634.2837000000001,-643.4389000000001,-584.2162000000001,-653.4524,-486.37000000000006,-700.3728000000001,-605.1015000000001,7.152500000000001,-508.39970000000005,-720.1137000000001,-593.6575,-739.8546,-719.5415,-553.0313,-565.6197000000001,-694.3647000000001,-655.4551,0.0,-712.9612000000001,-497.2418,-704.9504000000001,-793.9275,-941.5551
1778755610.960674,-577.922,-581.0691,-596.8046,-540.729,-482.65070000000003,-462.9098,-294.68300000000005,-470.06230000000005,-506.1109,-534.1487000000001,-553.0313,-486.0839,-518.4132000000001,-398.25120000000004,-561.9004,-515.5522000000001,6.8664000000000005,-376.5076,-437.733,-502.96380000000005,-520.4159000000001,-479.21750000000003,-436.58860000000004,-383.6601,-557.8950000000001,-545.3066,0.0,-531.8599,-365.92190000000005,-552.4591,-585.0745000000001,-725.5496
1778755610.961174,-329.3011,-330.7316,-389.95430000000005,-460.62100000000004,-167.65460000000002,-249.76530000000002,-146.1971,-278.94750000000005,-132.7504,-432.8693,-460.62100000000004,-383.08790000000005,-327.01230000000004,-315.8544,-371.93,-435.4442,5.4359,-195.40630000000002,56.647800000000004,-413.7006,-139.0446,-62.08370000000001,-296.97180000000003,-113.8678,-372.21610000000004,-409.69520000000006,0.0,-246.9043,-197.12290000000002,-326.7262,-241.7545,-362.7748
1778755610.960604,-56.9339,-59.794900000000005,-156.4967,-336.7397,152.49130000000002,-30.8988,1.4305,-71.2389,246.9043,-291.2498,-318.14320000000004,-244.04330000000002,-107.0014,-212.0001,-149.6303,-312.70730000000003,3.7193000000000005,-11.7301,513.8356,-289.5332,249.47920000000002,351.61690000000004,-140.18900000000002,132.7504,-154.20790000000002,-234.602,0.0,45.489900000000006,-21.171400000000002,-74.6721,112.72340000000001,39.1957
1778755610.961104,191.687,187.39550000000003,60.9393,-186.5372,427.4334,172.2322,135.3253,122.7369,572.4861000000001,-142.4778,-159.9299,-91.83810000000001,98.1323,-102.42380000000001,63.80030000000001,-174.52100000000002,6.8664000000000005,147.6276,872.3189000000001,-152.20520000000002,574.7749,692.6481,14.0189,332.1621,56.0756,-55.503400000000006,0.0,304.1243,136.75580000000002,159.6438,426.86120000000005,399.3956
1778755610.9616039,406.8342,406.8342,257.49,-31.7571,664.3242,349.61420000000004,251.48190000000002,293.8247,854.0085,-4.0054,-13.1606,50.9258,282.0946,5.149800000000001,254.62900000000002,-41.19840000000001,6.008100000000001,288.1027,1159.2772,-20.027,845.9977,974.4566000000001,157.9272,497.52790000000005,243.4711,110.14850000000001,0.0,524.9935,273.2255,364.77750000000003,693.5064000000001,710.6724
1778755610.9621038,583.0718,585.0745000000001,434.58590000000004,123.02300000000001,851.7197000000001,495.23910000000006,345.3227,434.58590000000004,1066.2947000000001,129.3172,134.467,183.104,439.44960000000003,108.14580000000001,419.7087,91.552,5.4359,402.8288,1364.1248,109.00410000000001,1052.8480000000002,1182.4513000000002,279.5197,626.5590000000001,408.2647,262.63980000000004,0.0,705.2365000000001,384.51840000000004,536.7236,906.6509000000001,968.7346000000001
1778755610.962604,722.9747000000001,722.6886000000001,587.9355,264.64250000000004,981.3230000000001,600.5239,413.12840000000006,545.0205000000001,1211.9196000000002,252.91240000000002,273.51160000000004,300.97720000000004,561.9004,196.8368,555.8923000000001,211.71400000000003,6.2942,488.08660000000003,1481.4258000000002,226.87730000000002,1192.4648000000002,1314.0573000000002,380.51300000000003,712.6751,549.0259000000001,398.82340000000005,0.0,835.6981000000001,466.62910000000005,673.1933,1062.0032,1165.8575
1778755610.963104,823.3958,825.6846,693.2203000000001,360.7721,1053.7063,671.1906,458.61830000000003,625.9868,1304.616,348.4698,372.21610000000004,384.2323,648.3026000000001,266.3591,656.0273000000001,304.98260000000005,5.4359,539.5846,1533.2099,316.4266,1275.7199,1386.7267000000002,452.32410000000004,759.5955,646.0138000000001,495.52520000000004,0.0,926.1057000000001,523.8491,768.4646,1157.8467,1296.0330000000001
1778755610.963604,894.0625000000001,896.3513,754.4457000000001,436.8747,1072.5889,718.6832,496.09740000000005,686.0678,1340.3785,436.3025,449.46310000000005,457.4739,712.389,338.1702,732.1299,387.09330000000006,6.2942,577.6359,1504.5999000000002,397.1068,1299.1801,1389.3016,517.841,769.3229,716.9666000000001,570.7695,0.0,976.1732000000001,565.3336,832.551,1197.0424,1354.9696000000001
1778755610.964104,956.7184000000001,956.7184000000001,797.9329,513.8356,1083.4607,765.8897000000001,537.868,746.1488,1354.9696000000001,528.9989,523.2769000000001,531.8599,765.8897000000001,415.98940000000005,802.2244000000001,472.6372,6.008100000000001,609.9652000000001,1453.9602000000002,477.2148,1302.8994,1373.2800000000002,580.2108000000001,780.7669000000001,778.4781,643.4389000000001,0.0,1010.2191,605.9598000000001,884.6212,1221.3609000000001,1387.2989
1778755610.964604,990.1921000000001,987.3311000000001,834.5537,557.6089000000001,1052.8480000000002,786.4889000000001,557.8950000000001,780.1947,1335.5148000000002,599.6656,567.3363,565.3336,777.0476000000001,468.63180000000006,841.9923000000001,528.1406000000001,5.4359,617.6899000000001,1374.7105000000001,522.7047,1269.4257,1323.4986000000001,607.9625000000001,762.4565,800.2217,676.3404,0.0,1020.2326,620.5509000000001,893.2042,1199.0451,1370.1329
1778755610.9651039,991.0504000000001,989.6199,854.8668,568.7668,984.1840000000001,780.4808,555.034,789.6360000000001,1289.7388,634.2837000000001,575.9193,558.4672,757.8789,488.08660000000003,846.8560000000001,553.6035,6.5803,602.2405,1271.1423000000002,535.5792,1210.2030000000002,1253.6902,609.6791000000001,718.3971,787.9194000000001,673.7655000000001,0.0,999.9195000000001,609.6791000000001,874.3216000000001,1144.6861000000001,1309.4797
1778755610.965604,957.8628000000001,959.8655000000001,851.4336000000001,594.2297000000001,899.7845000000001,755.8762,539.5846,771.8978000000001,1204.7671,660.8910000000001,603.671,567.9085,738.138,505.25260000000003,833.4093,581.3552000000001,6.8664000000000005,579.9247,1124.9452,557.0367,1116.9344,1146.4027,605.9598000000001,661.1771,772.1839000000001,675.196,0.0,947.5632,589.9382,845.7116000000001,1070.0140000000001,1232.2327
1778755610.966104,880.3297000000001,882.0463000000001,806.5159000000001,631.4227000000001,780.1947,698.0840000000001,503.2499,720.6859000000001,1042.2623,676.0543,642.0084,591.9409,705.2365000000001,523.8491,790.7804000000001,613.3984,5.722,541.5873,897.4957,588.2216000000001,955.8601000000001,955.2879,591.0826000000001,574.2027,746.1488,681.7763000000001,0.0,846.5699000000001,553.8896000000001,793.9275,949.8520000000001,1113.5012000000002
1778755610.966604,745.2905000000001,745.2905000000001,705.2365000000001,620.5509000000001,617.4038,594.8019,430.29440000000005,623.1258,822.2514000000001,635.4281000000001,617.4038,569.0529,621.4092,500.96110000000004,695.7952,590.5104,5.722,466.9152,630.8505,575.6332,742.1434,713.8195000000001,538.4402,459.19050000000004,672.335,639.7196,0.0,698.3701000000001,474.6399,689.5010000000001,775.0449000000001,934.4026000000001
1778755610.967104,630.2783000000001,631.9949,622.5536000000001,605.9598000000001,481.22020000000003,508.68580000000003,375.07710000000003,544.7344,636.0003,598.5212,586.505,541.3012,546.451,480.93410000000006,611.6818000000001,572.7722,6.8664000000000005,408.55080000000004,418.5643,560.1838,561.6143000000001,516.4105000000001,492.66420000000005,376.7937,606.532,596.2324000000001,0.0,571.0556,413.7006,596.5185,621.4092,765.6036
1778755610.967604,527.5684,527.5684,557.8950000000001,579.3525000000001,363.6331,425.43070000000006,301.54940000000005,464.9125,463.76810000000006,560.1838,555.8923000000001,503.82210000000003,468.63180000000006,439.7357,534.1487000000001,541.3012,6.5803,345.60880000000003,244.04330000000002,528.4267,406.26200000000006,345.60880000000003,433.4415,298.4023,537.5819,542.4456,0.0,461.4793,349.9003,508.1136,486.65610000000004,613.3984
1778755610.968104,441.45230000000004,443.1689,504.6804,548.4537,269.7923,352.47520000000003,231.4549,397.67900000000003,321.57640000000004,527.5684,527.5684,465.7708,400.54,397.9651,471.49280000000005,507.82750000000004,5.149800000000001,286.3861,104.14040000000001,497.2418,278.0892,204.84760000000003,377.9381,226.59120000000001,474.92600000000004,496.95570000000004,0.0,373.64660000000003,286.1,432.29710000000006,375.9354,484.65340000000003
1778755610.9686038,358.7694,357.91110000000003,433.4415,497.2418,170.2295,281.2363,173.37660000000002,327.58450000000005,192.54530000000003,479.50360000000006,470.63450000000006,417.1338,330.1594,354.764,398.82340000000005,462.05150000000003,4.863700000000001,226.59120000000001,-23.174100000000003,453.18240000000003,160.5021,76.10260000000001,322.14860000000004,159.35770000000002,401.11220000000003,434.58590000000004,0.0,282.6668,225.16070000000002,351.903,266.3591,346.4671
1778755610.969104,265.2147,263.21200000000005,344.75050000000005,441.16620000000006,70.3806,204.27540000000002,116.15660000000001,252.62630000000001,56.0756,420.28090000000003,411.12570000000005,362.7748,252.62630000000001,305.5548,317.571,407.12030000000004,5.149800000000001,165.93800000000002,-150.20250000000001,398.25120000000004,38.909600000000005,-49.4953,262.0676,98.4184,320.71810000000005,362.2026,0.0,181.95960000000002,162.2187,264.3564,152.20520000000002,207.1364
1778755610.969604,164.22140000000002,163.6492,250.90970000000002,389.38210000000004,-31.471000000000004,125.88400000000001,63.228100000000005,174.52100000000002,-82.39680000000001,363.6331,361.91650000000004,306.41310000000004,175.09320000000002,262.63980000000004,234.31590000000003,355.3362,4.0054,111.86510000000001,-286.1,345.3227,-89.26320000000001,-181.1013,199.9839,30.0405,240.89620000000002,291.2498,0.0,79.2497,100.135,174.80710000000002,30.326600000000003,67.2335
1778755610.970104,32.6154,32.0432,129.3172,313.85170000000005,-157.64110000000002,28.8961,3.1471,74.6721,-243.7572,281.2363,289.8193,230.88270000000003,74.9582,205.99200000000002,123.5952,281.2363,5.149800000000001,40.9123,-455.75730000000004,273.51160000000004,-248.04870000000003,-344.4644,126.45620000000001,-70.3806,132.4643,201.9866,0.0,-52.6424,25.1768,56.9339,-125.3118,-113.29560000000001
1778755610.970604,-101.8516,-102.42380000000001,6.008100000000001,228.88000000000002,-281.2363,-72.9555,-54.359,-28.0378,-405.9759,190.25650000000002,202.27270000000001,155.3523,-34.332,146.4832,9.1552,201.9866,6.008100000000001,-35.1903,-626.8451,195.40630000000002,-407.4064,-506.1109,48.637,-171.37390000000002,20.313100000000002,102.42380000000001,0.0,-191.4009,-48.3509,-66.9474,-288.1027,-299.8328
1778755610.971104,-242.0406,-243.4711,-122.45080000000002,138.47240000000002,-416.2755,-180.24300000000002,-118.1593,-135.03920000000002,-573.6305000000001,98.9906,110.4346,72.9555,-139.6168,83.5412,-112.1512,118.1593,4.5776,-114.7261,-794.4997000000001,113.58170000000001,-568.7668,-672.335,-34.0459,-273.7977,-95.5574,-0.5722,0.0,-332.7343,-125.3118,-192.25920000000002,-452.89630000000005,-486.65610000000004
1778755610.9716039,-385.94890000000004,-385.94890000000004,-259.4927,24.6046,-553.3174,-288.961,-187.39550000000003,-252.62630000000001,-726.6940000000001,-18.596500000000002,-8.0108,-26.3212,-247.76260000000002,-0.5722,-246.04600000000002,7.152500000000001,4.5776,-198.2673,-922.1003000000001,8.869100000000001,-712.1029000000001,-813.6684,-131.8921,-366.208,-224.5885,-121.30640000000001,0.0,-466.62910000000005,-212.5723,-321.0042,-599.6656,-662.6076
1778755610.9721038,-491.51980000000003,-491.23370000000006,-365.0636,-96.4157,-614.5428,-362.2026,-243.4711,-345.60880000000003,-793.3553,-139.6168,-133.03650000000002,-129.60330000000002,-335.5953,-95.5574,-356.1945,-112.43730000000001,6.008100000000001,-257.77610000000004,-923.8169,-108.718,-766.4619,-850.8614000000001,-222.01360000000003,-413.41450000000003,-333.5926,-238.3213,0.0,-545.5927,-281.5224,-421.99750000000006,-675.4821000000001,-765.8897000000001
1778755610.972604,-573.9166,-573.6305000000001,-453.4685,-194.548,-645.4416,-424.85850000000005,-296.11350000000004,-424.28630000000004,-825.3985,-247.76260000000002,-246.61820000000003,-230.0244,-415.41720000000004,-185.10670000000002,-444.02720000000005,-220.29700000000003,6.008100000000001,-318.71540000000005,-915.5200000000001,-217.436,-790.4943000000001,-861.1610000000001,-302.97990000000004,-461.4793,-428.5778,-337.88410000000005,0.0,-608.5347,-342.74780000000004,-506.96920000000006,-735.277,-837.9869000000001
1778755610.973104,-647.4443,-648.5887,-534.1487000000001,-288.67490000000004,-679.7736000000001,-485.22560000000004,-343.8922,-494.3808,-860.8749,-339.6007,-332.44820000000004,-316.4266,-486.37000000000006,-261.7815,-521.8464,-308.1297,4.2915,-373.3605,-922.6725,-304.98260000000005,-821.9653000000001,-878.8992000000001,-372.78830000000005,-509.5441,-506.1109,-418.5643,0.0,-668.6157000000001,-400.25390000000004,-577.6359,-788.4916000000001,-896.3513
1778755610.973604,-692.9342,-695.2230000000001,-590.2243000000001,-431.72490000000005,-708.0975000000001,-527.2823000000001,-379.65470000000005,-537.5819,-882.3324000000001,-397.39290000000005,-380.51300000000003,-372.5022,-530.4294,-317.28490000000005,-571.0556,-361.0582,4.2915,-409.4091,-920.0976,-362.48870000000005,-835.9842000000001,-889.1988000000001,-417.706,-536.7236,-550.7425000000001,-469.7762,0.0,-702.0894000000001,-436.8747,-618.8343000000001,-809.9491,-914.0895
1778755610.974104,-699.2284000000001,-701.5172,-613.3984,-518.6993,-706.3809,-536.4375,-388.8099,-551.8869000000001,-870.3162000000001,-427.71950000000004,-421.1392,-400.54,-544.1622,-345.60880000000003,-586.7911,-388.8099,4.863700000000001,-416.2755,-886.0517000000001,-387.95160000000004,-822.5375,-868.0274000000001,-433.72760000000005,-538.1541000000001,-562.1865,-488.3727,0.0,-705.8087,-442.3106,-625.4146000000001,-801.9383,-900.0706
1778755610.974604,-719.2554,-721.8303000000001,-642.0084,-526.9962,-713.2473,-560.1838,-408.8369,-574.7749,-866.3108000000001,-470.3484,-484.65340000000003,-443.7411,-572.4861000000001,-384.2323,-615.4011,-438.59130000000005,4.5776,-438.3052,-872.605,-426.5751,-828.8317000000001,-860.5888000000001,-463.19590000000005,-551.0286000000001,-593.0853000000001,-528.1406000000001,0.0,-721.2581,-458.9044,-649.1609000000001,-816.8155,-916.9505
1778755610.9751039,-696.3674000000001,-696.0813,-625.1285,-499.8167,-680.6319000000001,-540.4429,-391.95700000000005,-557.8950000000001,-830.5483,-466.05690000000004,-490.9476,-445.1716,-557.6089000000001,-376.22150000000005,-598.2351,-437.733,3.7193000000000005,-423.42800000000005,-827.6873,-428.5778,-794.4997000000001,-815.6711,-450.6075,-526.1379000000001,-585.9328,-529.8572,0.0,-693.5064000000001,-437.733,-628.8478,-788.7777000000001,-899.4984000000001
1778755610.975604,-692.0759,-693.2203000000001,-627.9895,-515.8383,-675.4821000000001,-544.7344,-397.9651,-561.6143000000001,-812.8101,-482.0785,-507.25530000000003,-463.19590000000005,-563.9031,-391.95700000000005,-604.5293,-457.76000000000005,4.5776,-430.8666,-803.0827,-451.75190000000003,-777.0476000000001,-792.7831000000001,-462.62370000000004,-526.4240000000001,-597.0907000000001,-543.3039,0.0,-687.7844,-442.3106,-631.1366,-781.0530000000001,-898.9262000000001
1778755610.976104,-686.3539000000001,-687.7844,-626.2729,-527.2823000000001,-662.0354000000001,-544.7344,-397.67900000000003,-563.0448,-791.9248,-493.23640000000006,-509.25800000000004,-475.49820000000005,-567.6224000000001,-405.68980000000005,-607.3903,-472.6372,5.722,-438.8774,-779.6225000000001,-468.63180000000006,-760.1677000000001,-766.4619,-472.06500000000005,-526.4240000000001,-599.9517000000001,-548.7398000000001,0.0,-683.2068,-445.7438,-633.9976,-769.8951000000001,-880.9019000000001
1778755610.976604,-678.6292000000001,-682.3485000000001,-627.7034000000001,-531.2877000000001,-648.5887,-545.0205000000001,-396.5346,-564.7614000000001,-769.8951000000001,-506.1109,-512.6912,-490.66150000000005,-570.4834000000001,-415.98940000000005,-613.1123,-485.22560000000004,6.2942,-448.31870000000004,-755.8762,-481.22020000000003,-742.1434,-744.1461,-478.6453,-522.4186000000001,-602.2405,-551.6008,0.0,-682.0624,-450.0353,-633.4254000000001,-756.4484000000001,-869.744
1778755610.9787169,-662.3215,-662.6076,-616.2594,-521.5603,-625.4146000000001,-534.4348,-383.08790000000005,-553.0313,-737.8519,-505.53870000000006,-504.96650000000005,-490.3754,-559.6116000000001,-411.6979,-604.5293,-486.9422,8.583,-440.02180000000004,-720.3998,-480.93410000000006,-712.389,-713.2473,-471.49280000000005,-509.83020000000005,-597.6629,-541.0151000000001,0.0,-666.3269,-438.01910000000004,-619.6926000000001,-735.277,-853.1502
1778755610.9792168,-669.474,-670.6184000000001,-623.4119000000001,-527.8545,-623.4119000000001,-535.0070000000001,-369.9273,-551.8869000000001,-727.8384000000001,-517.841,-515.8383,-500.675,-564.1892,-412.2701,-610.5374,-501.81940000000003,7.152500000000001,-439.16350000000006,-701.5172,-491.51980000000003,-700.6589,-696.3674000000001,-471.2067,-509.25800000000004,-610.5374,-553.6035,0.0,-664.3242,-429.72220000000004,-624.8424,-737.8519,-869.744
1778755610.9797168,-680.3458,-683.2068,-632.2810000000001,-539.2985,-620.5509000000001,-539.0124000000001,-359.05550000000005,-555.6062000000001,-718.3971,-532.7182,-526.7101,-512.9773,-569.0529,-413.12840000000006,-617.976,-518.6993,6.008100000000001,-438.8774,-697.2257000000001,-501.81940000000003,-694.6508,-686.3539000000001,-471.49280000000005,-506.1109,-622.5536000000001,-573.3444000000001,0.0,-668.3296,-424.0002,-636.8586,-745.2905000000001,-892.6320000000001
1778755610.9802167,-681.2041,-684.3512000000001,-631.4227000000001,-543.59,-604.5293,-541.3012,-358.48330000000004,-553.6035,-700.945,-543.0178000000001,-525.5657,-510.40240000000006,-567.3363,-417.99210000000005,-621.9814,-526.4240000000001,6.008100000000001,-435.4442,-678.3431,-507.25530000000003,-677.1987,-665.1825,-466.9152,-497.52790000000005,-624.5563000000001,-579.0664,0.0,-663.7520000000001,-418.5643,-635.142,-735.277,-887.7683000000001
1778755610.980717,-660.6049,-661.7493000000001,-610.2513,-522.4186000000001,-556.1784,-526.1379000000001,-348.75590000000005,-539.2985,-660.0327000000001,-539.5846,-510.1163,-480.0758,-543.0178000000001,-415.98940000000005,-603.671,-522.1325,6.5803,-413.41450000000003,-615.9733,-496.95570000000004,-630.2783000000001,-611.3957,-449.177,-463.19590000000005,-603.3849,-563.6170000000001,0.0,-629.7061,-398.5373,-604.5293,-688.0705,-841.4201
1778755610.981217,-575.9193,-575.061,-538.1541000000001,-484.0812,-419.42260000000005,-446.02990000000005,-299.2606,-480.36190000000005,-522.9908,-511.26070000000004,-487.22830000000005,-430.29440000000005,-463.19590000000005,-390.81260000000003,-540.729,-502.6777,3.7193000000000005,-345.3227,-411.12570000000005,-468.91790000000003,-482.65070000000003,-448.89090000000004,-400.82610000000005,-351.3308,-531.2877000000001,-523.8491,0.0,-523.2769000000001,-336.7397,-512.6912,-539.0124000000001,-698.6562
1778755610.9817169,-369.9273,-370.4995,-371.35780000000005,-412.2701,-148.77200000000002,-273.51160000000004,-197.40900000000002,-329.87330000000003,-210.2835,-436.3025,-421.42530000000005,-342.74780000000004,-303.5521,-335.88140000000004,-385.94890000000004,-447.1743,4.0054,-211.71400000000003,0.0,-413.7006,-160.216,-94.1269,-296.6857,-139.0446,-375.9354,-428.0056,0.0,-286.3861,-210.5696,-323.00690000000003,-242.0406,-383.6601
1778755610.9822168,-111.86510000000001,-113.8678,-155.63840000000002,-287.8166,134.467,-74.38600000000001,-75.8165,-129.60330000000002,136.1836,-301.54940000000005,-298.11620000000005,-213.14450000000002,-107.57360000000001,-240.61010000000002,-176.80980000000002,-330.44550000000004,3.7193000000000005,-58.3644,386.235,-312.1351,187.6816,284.0973,-156.2106,71.2389,-172.80440000000002,-273.7977,0.0,-12.3023,-58.936600000000006,-90.4076,80.108,-19.454800000000002
1778755610.9827168,118.4454,118.73150000000001,42.342800000000004,-184.2484,329.87330000000003,110.14850000000001,43.201100000000004,50.0675,426.5751,-167.0824,-179.0986,-119.58980000000001,62.6559,-135.03920000000002,19.7409,-213.7167,4.2915,72.3833,676.6265000000001,-210.2835,469.49010000000004,577.922,-24.3185,236.6047,-0.8583000000000001,-130.7477,0.0,221.1553,74.6721,114.44000000000001,343.6061,287.5305
1778755610.9832168,331.3038,329.58720000000005,227.7356,-80.108,471.49280000000005,285.5278,158.2133,214.0028,675.4821000000001,-30.8988,-61.7976,-56.0756,209.99740000000003,-25.1768,195.97850000000003,-95.5574,5.4359,178.52640000000002,902.3594,-100.42110000000001,700.0867000000001,815.9572000000001,95.5574,365.34970000000004,147.9137,4.5776,0.0,424.5724,189.3982,288.3888,552.4591,547.8815000000001
1778755610.983717,547.3093,546.7371,433.4415,95.8435,659.1744000000001,466.343,288.3888,390.81260000000003,907.7953000000001,143.05,100.42110000000001,83.25510000000001,383.94620000000003,109.5763,391.6709,68.9501,6.008100000000001,302.40770000000003,1102.6294,54.931200000000004,911.8007000000001,1030.2461,236.6047,501.81940000000003,332.7343,182.8179,0.0,627.1312,321.0042,476.35650000000004,764.4592,817.9599000000001
1778755610.984217,739.8546,736.7075000000001,612.5401,274.94210000000004,844.5672000000001,617.1177,398.25120000000004,549.8842000000001,1094.3325,315.8544,263.4981,256.6317,556.4645,240.0379,575.6332,237.74910000000003,5.149800000000001,424.5724,1254.8346000000001,226.87730000000002,1088.3244,1200.1895000000002,379.08250000000004,627.9895,521.8464,367.0663,0.0,804.2271000000001,446.31600000000003,653.7385,963.2987,1068.5835000000002
1778755610.984717,895.493,892.9181000000001,751.2986000000001,421.99750000000006,983.6118,732.416,483.22290000000004,679.4875000000001,1240.2435,466.05690000000004,399.68170000000003,409.4091,699.8006,352.18910000000005,729.2689,391.0987,4.5776,528.9989,1367.2719000000002,381.65740000000005,1226.7968,1326.6457,502.10550000000006,733.5604000000001,684.0651,525.8518,0.0,942.9856000000001,546.1649,797.3607000000001,1123.8008,1271.7145
1778755610.9852169,1014.7967000000001,1013.6523000000001,867.1691000000001,570.4834000000001,1075.736,832.2649,567.6224000000001,788.4916000000001,1326.6457,605.1015000000001,531.8599,552.7452000000001,817.3877000000001,468.91790000000003,853.4363000000001,532.7182,5.149800000000001,624.2702,1413.6201,524.7074,1306.3326000000002,1390.7321000000002,613.3984,812.5240000000001,815.3850000000001,665.4686,0.0,1044.5511000000001,635.4281000000001,916.9505,1231.0883000000001,1405.6093
1778755610.9857168,1068.0113000000001,1066.5808000000002,928.1084000000001,670.6184000000001,1108.0653,878.3270000000001,611.1096,843.4228,1346.9588,688.6427000000001,627.1312,640.0057,876.6104,543.59,915.8061,616.2594,5.722,672.9072000000001,1395.5958,613.9706,1322.9264,1388.1572,678.9153,839.1313,885.4795,746.1488,0.0,1085.4634,678.6292000000001,972.4539000000001,1267.423,1452.8158
1778755610.9862168,1072.875,1071.1584,943.2717000000001,724.4052,1093.4742,880.0436000000001,618.8343000000001,856.0112,1318.0627000000002,727.8384000000001,690.0732,681.2041,891.4876,574.4888000000001,933.8304,655.1690000000001,4.2915,683.4929000000001,1334.9426,657.4578,1293.4581,1346.3866,700.6589,825.3985,905.7926000000001,779.0503000000001,0.0,1078.597,686.9261,980.1786000000001,1247.9682,1441.3718000000001
1778755610.9867167,1054.8507000000002,1055.9951,934.6887,743.2878000000001,1053.1341,863.7359,608.2486,847.1421,1269.1396000000002,745.0044,722.9747000000001,694.6508,880.9019000000001,585.6467,923.2447000000001,670.0462,4.5776,673.1933,1254.8346000000001,679.2014,1241.9601,1280.2975000000001,704.0921000000001,795.6441000000001,897.2096,791.0665,0.0,1050.8453000000002,672.9072000000001,967.018,1210.7752,1408.4703000000002
1778755610.987217,1008.5025,1008.2164,894.3486,735.8492000000001,971.5956000000001,818.5321,580.2108000000001,815.0989000000001,1178.4459000000002,738.9963,726.9801000000001,686.0678,843.4228,582.2135000000001,889.4849,671.7628000000001,5.149800000000001,642.5806,1120.3676,689.2149000000001,1148.4054,1171.0073,687.7844,738.9963,863.1637000000001,791.0665,0.0,989.0477000000001,638.8613,920.9559,1129.5228000000002,1326.3596
1778755610.987717,905.7926000000001,905.7926000000001,803.6549000000001,704.6643,826.8290000000001,730.9855,521.8464,745.8627,1009.9330000000001,710.3863,708.6697,663.4659,767.3202,563.0448,820.8209,661.4632,3.7193000000000005,582.7857,901.5011000000001,690.3593000000001,985.0423000000001,983.3257000000001,645.1555000000001,638.5752,799.9356,766.4619,0.0,874.3216000000001,574.7749,830.8344000000001,978.1759000000001,1171.5795
1778755610.9882169,769.609,772.1839000000001,692.0759,644.8694,655.7412,618.5482000000001,447.7465,647.4443,801.9383,657.7439,668.9018000000001,613.1123,664.3242,524.7074,726.4079,632.8532,4.863700000000001,508.1136,657.4578,665.1825,788.2055,759.5955,578.7803,523.563,716.1083000000001,718.9693000000001,0.0,732.416,493.23640000000006,713.8195000000001,794.4997000000001,966.1597
1778755610.9887168,639.4335000000001,640.5779,588.5077,581.3552000000001,494.09470000000005,506.96920000000006,377.07980000000003,548.1676,612.254,598.2351,619.6926000000001,553.0313,557.0367,480.36190000000005,629.4200000000001,593.6575,6.008100000000001,436.3025,448.03260000000006,622.5536000000001,601.0961000000001,550.7425000000001,510.68850000000003,420.28090000000003,630.5644000000001,655.1690000000001,0.0,592.5131,415.41720000000004,596.5185,626.2729,761.5982
1778755610.9892168,543.59,543.3039,504.1082,539.0124000000001,369.9273,433.72760000000005,319.2876,475.78430000000003,464.62640000000005,554.7479000000001,576.4915000000001,504.6804,476.92870000000005,446.88820000000004,558.1811,570.7695,6.5803,380.2269,300.1189,591.6548,460.33490000000006,391.38480000000004,455.4712,347.61150000000004,558.7533000000001,602.2405,0.0,486.9422,359.3416,507.25530000000003,502.39160000000004,602.8127000000001
1778755610.9897168,454.32680000000005,456.61560000000003,428.0056,479.21750000000003,258.0622,362.48870000000005,255.7734,402.5427,326.7262,506.6831,514.6939,443.45500000000004,398.5373,398.25120000000004,481.5063,522.7047,5.149800000000001,312.4212,160.78820000000002,531.8599,328.44280000000003,248.04870000000003,389.6682,266.07300000000004,463.76810000000006,528.1406000000001,0.0,385.94890000000004,294.11080000000004,418.5643,379.08250000000004,457.18780000000004
1778755610.9902167,349.9003,353.04740000000004,356.48060000000004,407.12030000000004,148.77200000000002,276.37260000000003,184.8206,314.71000000000004,187.39550000000003,446.02990000000005,442.59670000000006,370.4995,307.5575,333.3065,386.235,450.89360000000005,4.5776,236.3186,15.735500000000002,443.7411,190.54260000000002,106.71530000000001,311.84900000000005,177.0959,355.05010000000004,427.4334,0.0,274.0838,217.7221,316.14050000000003,246.9043,310.7046
1778755610.990717,247.76260000000002,247.47650000000002,290.3915,346.4671,47.4926,188.53990000000002,115.8705,222.8719,51.7841,380.2269,387.95160000000004,303.83820000000003,217.7221,270.6506,293.8247,387.95160000000004,4.863700000000001,169.0851,-114.44000000000001,365.0636,59.794900000000005,-28.8961,238.03520000000003,98.1323,262.3537,337.31190000000004,0.0,166.51020000000003,146.76930000000002,218.8665,125.3118,180.8152
1778755610.991217,137.0419,133.8948,209.99740000000003,285.5278,-56.647800000000004,99.56280000000001,53.5007,129.88940000000002,-82.39680000000001,311.5629,333.3065,244.04330000000002,131.60600000000002,215.7194,197.40900000000002,323.57910000000004,4.5776,107.28750000000001,-237.74910000000003,298.11620000000005,-72.3833,-167.0824,172.5183,19.1687,177.6681,258.0622,0.0,54.072900000000004,82.39680000000001,125.88400000000001,6.008100000000001,54.645100000000006
1778755610.9917169,3.1471,2.0027,96.12960000000001,218.29430000000002,-170.8017,8.869100000000001,1.1444,28.610000000000003,-235.74640000000002,222.29970000000003,250.05140000000003,179.0986,40.054,163.9353,85.54390000000001,242.61280000000002,6.5803,44.631600000000006,-386.235,226.59120000000001,-223.15800000000002,-321.8625,106.1431,-66.9474,85.2578,165.93800000000002,0.0,-75.24430000000001,16.879900000000003,17.4521,-133.6087,-100.7072
1778755610.9922168,-170.8017,-169.0851,-67.2335,107.8597,-319.57370000000003,-125.02570000000001,-86.40220000000001,-109.29020000000001,-425.71680000000003,92.69640000000001,107.8597,68.664,-94.1269,75.5304,-69.5223,119.3037,6.8664000000000005,-58.3644,-566.7641,113.0095,-408.8369,-508.1136,-2.5749000000000004,-189.3982,-54.931200000000004,29.1822,0.0,-240.89620000000002,-86.1161,-137.6141,-317.28490000000005,-305.5548
1778755610.9927168,-310.4185,-310.1324,-199.12560000000002,12.3023,-443.1689,-230.88270000000003,-148.77200000000002,-218.00820000000002,-584.5023,-8.869100000000001,-2.861,-21.7436,-199.12560000000002,6.2942,-191.97310000000002,32.0432,6.2942,-139.90290000000002,-725.5496,20.313100000000002,-571.9139,-667.7574000000001,-91.2659,-289.5332,-172.5183,-78.3914,0.0,-383.08790000000005,-163.3631,-262.0676,-477.50090000000006,-487.22830000000005
1778755610.9932168,-450.0353,-448.6048,-327.58450000000005,-98.4184,-555.3201,-336.1675,-225.16070000000002,-337.31190000000004,-729.5550000000001,-129.3172,-133.32260000000002,-126.74230000000001,-309.5602,-85.2578,-322.7208,-81.5385,3.7193000000000005,-222.29970000000003,-845.9977,-87.26050000000001,-710.1002000000001,-804.2271000000001,-190.82870000000003,-378.22420000000005,-298.4023,-198.83950000000002,0.0,-513.2634,-248.04870000000003,-389.38210000000004,-619.1204,-652.308
1778755610.993717,-526.9962,-528.4267,-411.4118,-194.8341,-593.6575,-386.8072,-267.7896,-405.9759,-773.0422000000001,-228.0217,-238.03520000000003,-211.42790000000002,-378.22420000000005,-160.216,-411.4118,-183.96230000000003,5.722,-268.934,-838.5591000000001,-181.3874,-753.5874,-836.8425000000001,-261.20930000000004,-404.8315,-380.2269,-293.2525,0.0,-574.4888000000001,-297.8301,-461.19320000000005,-676.0543,-736.1353
1778755610.994217,-612.8262000000001,-613.1123,-510.40240000000006,-327.58450000000005,-663.1798,-460.62100000000004,-323.8652,-484.36730000000006,-818.5321,-343.8922,-341.0312,-330.44550000000004,-472.06500000000005,-252.91240000000002,-512.119,-305.5548,5.4359,-341.8895,-858.0139,-301.2633,-809.9491,-874.6077,-348.4698,-466.343,-485.79780000000005,-406.54810000000003,0.0,-652.0219000000001,-369.9273,-550.4564,-757.0206000000001,-835.412
1778755610.994717,-714.1056000000001,-714.3917,-624.5563000000001,-476.6426,-757.8789,-569.9112,-405.68980000000005,-583.0718,-890.9154000000001,-459.4766,-444.3133,-454.6129,-577.6359,-359.05550000000005,-620.2648,-426.0029,5.4359,-434.2998,-918.3810000000001,-427.14730000000003,-888.3405,-937.5497,-446.6021,-555.3201,-600.8100000000001,-524.9935,0.0,-743.5739000000001,-458.9044,-652.308,-853.7224000000001,-943.8439000000001
1778755610.993185,-785.3445,-787.0611,-700.6589,-573.6305000000001,-813.9545,-650.0192000000001,-473.7816,-655.1690000000001,-944.4161,-543.8761000000001,-518.4132000000001,-536.7236,-653.1663000000001,-442.3106,-697.2257000000001,-508.68580000000003,4.0054,-502.39160000000004,-961.296,-513.2634,-936.9775000000001,-979.0342,-525.5657,-620.837,-678.3431,-601.0961000000001,0.0,-808.5186000000001,-528.4267,-725.8357000000001,-914.3756000000001,-1007.6442000000001
1778755610.993685,-824.8263000000001,-826.2568000000001,-743.86,-617.976,-834.8398000000001,-690.9315,-516.9827,-695.2230000000001,-963.5848000000001,-599.0934000000001,-572.2,-584.5023,-696.0813,-498.95840000000004,-739.2824,-562.4726,2.5749000000000004,-546.451,-969.879,-565.0475,-959.8655000000001,-991.0504000000001,-576.4915000000001,-658.8883000000001,-724.4052,-647.4443,0.0,-843.1367,-570.4834000000001,-769.3229,-940.4107,-1040.5457000000001
1778755610.994185,-848.8587000000001,-852.0058,-767.3202,-631.1366,-827.4012,-715.5361,-549.0259000000001,-725.8357000000001,-971.3095000000001,-633.4254000000001,-610.8235000000001,-603.671,-713.8195000000001,-539.2985,-768.1785000000001,-600.5239,5.4359,-573.0583,-963.0126,-595.3741,-962.7265000000001,-986.7589,-608.2486,-676.3404,-750.1542000000001,-676.6265000000001,0.0,-859.1583,-596.2324000000001,-791.9248,-945.2744,-1055.4229
1778755610.994685,-861.1610000000001,-861.7332,-785.6306000000001,-646.2999000000001,-816.2433000000001,-731.8438000000001,-569.339,-742.4295000000001,-968.1624,-660.6049,-642.5806,-617.976,-727.2662,-566.7641,-784.7723000000001,-629.4200000000001,4.863700000000001,-589.9382,-948.1354000000001,-618.5482000000001,-957.2906,-975.6010000000001,-631.7088,-686.6400000000001,-763.8870000000001,-698.9423,0.0,-862.0193,-613.9706,-804.5132000000001,-944.4161,-1064.0059
1778755610.9951851,-885.7656000000001,-886.6239,-826.5429,-702.6616,-843.1367,-768.7507,-598.5212,-770.7534,-977.0315,-708.3836,-699.8006,-667.7574000000001,-759.3094000000001,-608.5347,-816.5294,-678.9153,5.4359,-627.4173000000001,-954.7157000000001,-663.7520000000001,-969.0207,-979.6064000000001,-670.3323,-717.8249000000001,-802.2244000000001,-744.7183,0.0,-883.7629000000001,-648.8748,-839.1313,-967.8763,-1095.4769000000001
1778755610.995685,-895.7791000000001,-898.0679000000001,-853.4363000000001,-751.5847000000001,-865.1664000000001,-790.4943000000001,-613.3984,-785.0584,-977.8898,-739.2824,-741.8573,-706.0948000000001,-778.7642000000001,-633.7115,-835.6981000000001,-712.1029000000001,3.7193000000000005,-654.3107,-950.4242,-700.945,-967.3041000000001,-974.7427000000001,-694.6508,-735.8492000000001,-832.551,-774.7588000000001,0.0,-895.7791000000001,-664.6103,-859.4444000000001,-980.4647000000001,-1110.068
1778755610.996185,-862.5915000000001,-860.5888000000001,-831.1205000000001,-744.4322000000001,-839.9896000000001,-762.1704000000001,-588.5077,-752.7291,-932.1138000000001,-720.9720000000001,-728.4106,-694.3647000000001,-750.4403000000001,-615.4011,-808.5186000000001,-697.2257000000001,4.5776,-636.2864000000001,-898.354,-685.2095,-921.5281000000001,-924.3891000000001,-673.1933,-706.9531000000001,-808.5186000000001,-754.4457000000001,0.0,-856.5834000000001,-635.4281000000001,-830.5483,-940.6968,-1072.0167000000001
1778755610.996685,-733.5604000000001,-731.8438000000001,-705.2365000000001,-628.5617000000001,-722.6886000000001,-630.8505,-467.7735,-628.8478,-799.9356,-605.1015000000001,-615.9733,-587.6494,-627.7034000000001,-500.10280000000006,-685.2095,-583.3579000000001,5.4359,-522.7047,-761.5982,-568.7668,-790.7804000000001,-790.4943000000001,-556.7506000000001,-581.0691,-686.6400000000001,-637.1447000000001,0.0,-726.9801000000001,-514.98,-706.0948000000001,-809.0908000000001,-934.1165000000001
1778755610.997185,-577.0637,-576.4915000000001,-545.8788000000001,-467.20130000000006,-571.9139,-457.76000000000005,-295.2552,-474.35380000000004,-638.2891000000001,-455.18510000000003,-462.62370000000004,-454.0407,-474.6399,-339.88680000000005,-530.7155,-432.011,7.152500000000001,-372.21610000000004,-601.3822,-424.28630000000004,-632.5671000000001,-633.4254000000001,-404.25930000000005,-424.28630000000004,-539.8707,-488.65880000000004,0.0,-575.9193,-355.62230000000005,-556.1784,-660.6049,-782.7696000000001
1778755610.997685,-509.25800000000004,-507.82750000000004,-470.3484,-395.6763,-497.52790000000005,-373.64660000000003,-200.55610000000001,-401.3983,-555.034,-385.3767,-395.6763,-398.25120000000004,-413.98670000000004,-261.20930000000004,-466.62910000000005,-370.21340000000004,8.583,-302.1216,-526.9962,-365.34970000000004,-555.034,-551.0286000000001,-333.3065,-355.90840000000003,-482.65070000000003,-428.29170000000005,0.0,-508.39970000000005,-274.0838,-496.66960000000006,-601.0961000000001,-727.8384000000001
1778755610.9981852,-516.6966,-515.8383,-474.92600000000004,-402.25660000000005,-478.35920000000004,-377.3659,-198.83950000000002,-406.54810000000003,-544.4483,-397.1068,-407.4064,-401.68440000000004,-421.1392,-268.3618,-477.78700000000003,-382.8018,4.2915,-300.97720000000004,-517.2688,-378.7964,-546.7371,-535.2931000000001,-337.598,-360.1999,-490.08930000000004,-438.59130000000005,0.0,-510.9746,-272.0811,-503.2499,-599.3795,-732.7021000000001
1778755610.9986851,-525.5657,-523.563,-483.509,-414.2728,-457.76000000000005,-389.6682,-216.57770000000002,-420.28090000000003,-531.0016,-421.1392,-427.71950000000004,-406.54810000000003,-428.29170000000005,-293.53860000000003,-488.9449,-402.8288,6.008100000000001,-305.2687,-489.23100000000005,-396.24850000000004,-530.4294,-508.39970000000005,-347.3254,-358.1972,-497.52790000000005,-451.46580000000006,0.0,-507.25530000000003,-278.0892,-503.53600000000006,-586.2189000000001,-718.9693000000001
1778755610.999185,-466.05690000000004,-464.62640000000005,-442.59670000000006,-414.55890000000005,-368.4968,-344.75050000000005,-202.84490000000002,-382.8018,-429.72220000000004,-420.85310000000004,-429.4361,-394.81800000000004,-395.1041,-296.3996,-451.75190000000003,-409.4091,5.4359,-273.51160000000004,-338.4563,-390.52650000000006,-421.1392,-388.52380000000005,-326.154,-289.8193,-458.61830000000003,-436.58860000000004,0.0,-434.58590000000004,-247.47650000000002,-448.6048,-484.0812,-612.8262000000001
1778755610.999685,-281.2363,-281.2363,-298.6884,-363.0609,-145.6249,-200.55610000000001,-125.02570000000001,-249.76530000000002,-156.7828,-356.1945,-373.9327,-333.02040000000005,-265.7869,-259.20660000000004,-316.4266,-362.48870000000005,3.4332000000000003,-166.22410000000002,16.3077,-334.737,-144.1944,-85.2578,-239.75180000000003,-109.86240000000001,-324.4374,-345.60880000000003,0.0,-225.44680000000002,-146.76930000000002,-280.37800000000004,-223.73020000000002,-335.30920000000003
1778755611.000185,-40.9123,-44.3455,-104.14040000000001,-250.3375,109.00410000000001,-18.596500000000002,-24.3185,-72.3833,153.6357,-228.30780000000001,-253.7707,-217.7221,-90.4076,-177.6681,-119.58980000000001,-256.0595,4.2915,-29.754400000000004,376.5076,-224.01630000000003,180.24300000000002,258.6344,-109.29020000000001,83.82730000000001,-132.1782,-191.687,0.0,30.326600000000003,-12.874500000000001,-57.7922,80.6802,6.2942
1778755611.000685,213.7167,209.1391,114.7261,-93.2686,366.4941,172.2322,97.84620000000001,125.02570000000001,460.33490000000006,-63.5142,-89.5493,-60.36710000000001,113.8678,-56.647800000000004,99.56280000000001,-102.7099,3.1471,124.4535,695.7952,-72.0972,492.66420000000005,583.3579000000001,49.4953,285.5278,86.1161,-4.5776,0.0,288.1027,141.0473,180.24300000000002,383.6601,348.18370000000004
1778755611.001185,439.7357,441.16620000000006,324.4374,67.8057,590.5104,345.8949,219.72480000000002,312.1351,723.5469,100.42110000000001,73.52770000000001,98.9906,308.1297,72.3833,306.127,54.645100000000006,3.7193000000000005,266.9313,960.4377000000001,84.3995,758.1650000000001,857.4417000000001,200.27,460.9071,288.67490000000004,177.95420000000001,0.0,519.5576000000001,286.1,398.82340000000005,652.0219000000001,656.8856000000001
1778755611.0016851,636.8586,636.5725,503.82210000000003,221.1553,772.47,504.96650000000005,333.02040000000005,472.6372,934.1165000000001,254.34290000000001,224.87460000000002,246.33210000000003,469.49010000000004,195.97850000000003,485.22560000000004,200.84220000000002,4.2915,389.096,1154.9857000000002,228.0217,969.3068000000001,1067.4391,333.3065,592.5131,464.05420000000004,342.17560000000003,0.0,708.9558000000001,403.9732,576.4915000000001,865.7386,911.8007000000001
1778755611.002185,804.2271000000001,802.7966,660.0327000000001,364.4914,912.6590000000001,642.0084,431.4388,611.9679000000001,1099.7684000000002,397.1068,371.35780000000005,380.7991,611.9679000000001,309.84630000000004,642.5806,340.459,5.149800000000001,488.3727,1285.4473,362.48870000000005,1128.6645,1221.0748,451.1797,699.5145,620.5509000000001,489.5171,0.0,862.3054000000001,507.25530000000003,726.9801000000001,1032.2488,1118.9371
1778755611.002685,939.2663000000001,938.6941,792.4970000000001,494.66690000000006,1020.2326,754.7318,512.4051000000001,724.6913000000001,1222.5053,524.7074,500.10280000000006,505.25260000000003,734.4187000000001,410.55350000000004,773.9005000000001,461.76540000000006,5.722,566.7641,1369.8468,483.509,1246.5377,1331.2233,553.0313,778.4781,751.2986000000001,615.115,0.0,981.8952,587.6494,852.0058,1160.4216000000001,1278.5809000000002
1778755611.003185,1008.7886000000001,1007.9303000000001,868.0274000000001,589.3660000000001,1057.4256,814.5267,553.8896000000001,782.7696000000001,1265.7064,611.1096,591.3687,586.505,802.2244000000001,480.648,843.4228,544.4483,5.722,605.6737,1364.4109,562.7587000000001,1281.4419,1354.1113,609.6791000000001,803.3688000000001,821.3931,686.0678,0.0,1034.2515,623.6980000000001,918.9532,1210.2030000000002,1350.392
1778755611.003685,1047.6982,1050.8453000000002,919.2393000000001,673.7655000000001,1069.7279,848.0004,579.3525000000001,821.9653000000001,1275.1477,679.2014,665.1825,648.0165000000001,844.2811,535.2931000000001,891.7737000000001,612.5401,4.2915,629.4200000000001,1328.3623,619.4065,1281.728,1342.3812,654.8829000000001,808.2325000000001,867.4552000000001,736.1353,0.0,1057.1395,650.3053000000001,962.7265000000001,1226.5107,1381.0047000000002
1778755611.004185,1072.3028000000002,1073.4472,955.5740000000001,736.9936,1067.4391,866.3108000000001,600.2378,852.5780000000001,1265.1342000000002,736.1353,723.5469,697.7979,870.3162000000001,580.2108000000001,926.3918000000001,668.9018000000001,4.0054,645.1555000000001,1278.5809000000002,666.613,1258.8400000000001,1313.7712000000001,688.6427000000001,813.0962000000001,896.6374000000001,776.1893,0.0,1066.5808000000002,668.6157000000001,981.0369000000001,1223.6497000000002,1392.4487000000001
1778755611.004685,1084.6051,1085.4634,975.8871,775.9032000000001,1057.1395,878.8992000000001,615.115,873.7494,1244.2489,775.0449000000001,763.0287000000001,732.9882,891.7737000000001,613.3984,945.8466000000001,712.1029000000001,5.149800000000001,662.0354000000001,1226.5107,703.806,1233.0910000000001,1275.7199,712.6751,814.8128,915.8061,807.3742000000001,0.0,1069.4418,682.0624,984.4701000000001,1212.7779,1381.0047000000002
1778755611.0051851,1058.8561,1058.2839000000001,960.4377000000001,783.0557,1001.35,857.7278000000001,611.3957,862.3054000000001,1175.2988,790.7804000000001,784.2001,745.5766000000001,878.6131,630.2783000000001,937.8358000000001,734.1326,6.2942,661.1771,1122.6564,722.6886000000001,1162.4243000000001,1191.0343,716.6805,780.7669000000001,907.7953000000001,812.8101,0.0,1033.1071000000002,670.6184000000001,957.5767000000001,1157.2745,1324.3569
1778755611.005685,973.8844,971.5956000000001,894.3486,764.1731000000001,880.0436000000001,789.3499,575.6332,802.7966,1027.6712,777.0476000000001,780.1947,728.4106,820.5348,627.9895,881.7602,731.8438000000001,4.5776,619.6926000000001,925.5335000000001,719.8276000000001,1017.3716000000001,1019.9465000000001,687.2122,696.0813,856.8695,784.2001,0.0,934.1165000000001,622.8397,885.4795,1031.3905,1189.3177
1778755611.006185,830.2622,830.2622,779.0503000000001,700.0867000000001,711.2446000000001,674.9099,502.10550000000006,697.5118000000001,823.6819,715.8222000000001,724.6913000000001,663.7520000000001,710.3863,578.2081000000001,772.1839000000001,678.6292000000001,5.149800000000001,535.2931000000001,683.2068,672.0489,813.0962000000001,793.6414000000001,613.6845000000001,572.2,756.1623000000001,706.3809,0.0,781.0530000000001,535.5792,762.7426,846.2838,993.0531000000001
1778755611.006685,689.7871,689.2149000000001,660.3188,623.1258,551.0286000000001,561.3282,428.5778,587.3633000000001,630.2783000000001,641.1501000000001,650.0192000000001,589.3660000000001,600.2378,520.1298,656.5995,616.5455000000001,6.008100000000001,455.75730000000004,478.0731,608.2486,622.8397,587.0772000000001,534.4348,454.6129,648.5887,617.4038,0.0,631.4227000000001,451.46580000000006,637.4308000000001,670.0462,797.0746
1778755611.007185,573.0583,571.0556,561.3282,558.7533000000001,424.0002,470.3484,354.47790000000003,492.9503,465.7708,575.061,585.0745000000001,525.8518,508.1136,469.49010000000004,561.6143000000001,558.4672,5.722,389.95430000000005,314.9961,550.7425000000001,469.49010000000004,417.99210000000005,464.62640000000005,360.48600000000005,555.6062000000001,547.0232000000001,0.0,509.83020000000005,380.2269,534.4348,529.8572,641.4362000000001
1778755611.007685,466.343,467.48740000000004,471.7789,498.95840000000004,317.8571,389.38210000000004,281.80850000000004,407.69250000000005,321.2903,507.5414,519.5576000000001,460.62100000000004,427.14730000000003,415.98940000000005,476.07040000000006,495.8113,5.4359,325.2957,186.82330000000002,492.66420000000005,335.30920000000003,274.36990000000003,400.25390000000004,288.1027,473.7816,476.6426,0.0,400.82610000000005,312.70730000000003,446.02990000000005,408.55080000000004,504.6804
1778755611.0081851,369.069,368.78290000000004,387.6655,446.02990000000005,226.59120000000001,315.5683,227.16340000000002,330.7316,191.687,441.45230000000004,453.18240000000003,400.25390000000004,351.903,366.78020000000004,393.38750000000005,434.58590000000004,4.5776,269.7923,77.247,436.01640000000003,213.14450000000002,150.48860000000002,340.74510000000004,223.15800000000002,396.24850000000004,408.2647,0.0,300.6911,256.3456,363.0609,298.11620000000005,378.7964
1778755611.008685,269.2201,266.64520000000005,300.97720000000004,377.3659,132.7504,238.89350000000002,169.37120000000002,248.04870000000003,65.80300000000001,369.6412,382.51570000000004,333.87870000000004,272.6533,309.27410000000003,305.5548,366.208,5.149800000000001,213.7167,-38.051300000000005,371.64390000000003,90.12150000000001,23.4602,276.0865,148.48590000000002,308.7019,334.45090000000005,0.0,201.4144,194.26190000000003,272.6533,184.2484,246.04600000000002
1778755611.009185,151.3469,152.7774,195.40630000000002,296.6857,23.174100000000003,142.1917,93.55470000000001,152.20520000000002,-72.9555,283.81120000000004,297.2579,246.61820000000003,176.80980000000002,239.17960000000002,204.27540000000002,282.9529,5.149800000000001,144.4805,-169.94340000000003,298.11620000000005,-41.7706,-115.5844,198.5534,60.081,211.71400000000003,254.62900000000002,0.0,86.40220000000001,117.301,164.79360000000003,49.781400000000005,97.274
1778755611.008868,5.4359,4.2915,60.653200000000005,195.69240000000002,-121.8786,17.4521,9.727400000000001,36.334700000000005,-239.17960000000002,176.52370000000002,193.1175,140.4751,51.21190000000001,155.92450000000002,74.6721,182.5318,4.5776,54.645100000000006,-337.88410000000005,204.84760000000003,-202.84490000000002,-287.5305,102.7099,-52.6424,89.5493,153.3496,0.0,-60.36710000000001,23.4602,26.3212,-121.30640000000001,-94.6991
1778755611.009368,-167.0824,-168.799,-101.56550000000001,65.5169,-286.9583,-125.88400000000001,-86.1161,-105.2848,-428.29170000000005,41.484500000000004,60.653200000000005,14.5911,-95.5574,53.214600000000004,-82.6829,66.3752,3.7193000000000005,-56.0756,-529.5711,81.5385,-389.95430000000005,-479.21750000000003,-14.877200000000002,-187.9677,-65.5169,19.454800000000002,0.0,-231.741,-89.8354,-137.9002,-315.28220000000005,-314.71000000000004
1778755611.009868,-353.61960000000005,-357.3389,-277.517,-76.96090000000001,-466.05690000000004,-285.24170000000004,-196.5507,-260.9232,-631.7088,-107.28750000000001,-90.12150000000001,-126.45620000000001,-259.20660000000004,-69.5223,-257.77610000000004,-70.3806,3.1471,-184.5345,-736.4214000000001,-64.94470000000001,-591.0826000000001,-684.6373000000001,-153.6357,-341.0312,-245.1877,-139.3307,0.0,-421.42530000000005,-217.436,-318.4293,-526.1379000000001,-555.6062000000001
1778755611.0103679,-514.1217,-514.1217,-426.28900000000004,-205.1337,-603.9571000000001,-418.2782,-292.10810000000004,-399.3956,-788.7777000000001,-246.61820000000003,-230.31050000000002,-254.34290000000001,-405.4037,-187.9677,-406.8342,-204.27540000000002,3.4332000000000003,-298.4023,-876.8965000000001,-206.8503,-751.2986000000001,-841.4201,-279.80580000000003,-458.0461,-405.4037,-285.24170000000004,0.0,-575.6332,-328.7289,-474.92600000000004,-696.6535,-755.3040000000001
1778755611.010868,-612.5401,-614.2567,-526.1379000000001,-315.8544,-667.7574000000001,-500.675,-358.1972,-490.3754,-856.0112,-361.0582,-347.3254,-354.47790000000003,-498.95840000000004,-284.6695,-512.9773,-322.7208,3.7193000000000005,-372.5022,-898.6401000000001,-322.4347,-816.8155,-896.6374000000001,-373.3605,-517.5549000000001,-516.4105000000001,-404.54540000000003,0.0,-660.3188,-403.401,-571.0556,-784.2001,-861.1610000000001
1778755611.011368,-687.4983000000001,-686.3539000000001,-600.5239,-407.4064,-710.1002000000001,-560.4699,-407.97860000000003,-558.4672,-891.4876,-450.89360000000005,-438.59130000000005,-428.86390000000006,-565.0475,-360.7721,-591.9409,-414.55890000000005,5.4359,-425.71680000000003,-907.7953000000001,-411.4118,-851.4336000000001,-916.6644000000001,-444.3133,-561.0421,-594.5158,-497.52790000000005,0.0,-718.3971,-458.33220000000006,-640.2918000000001,-835.9842000000001,-931.8277
1778755611.011868,-741.2851,-742.7156000000001,-661.7493000000001,-480.648,-746.4349000000001,-604.8154000000001,-444.02720000000005,-607.3903,-922.1003000000001,-516.9827,-507.25530000000003,-485.79780000000005,-615.115,-417.99210000000005,-650.3053000000001,-481.79240000000004,5.722,-467.48740000000004,-921.2420000000001,-475.2121,-884.0490000000001,-936.4053000000001,-495.8113,-595.0880000000001,-651.4497,-562.7587000000001,0.0,-764.7453,-498.38620000000003,-692.3620000000001,-874.8938,-983.0396000000001
1778755611.012368,-768.1785000000001,-769.8951000000001,-690.9315,-526.9962,-760.1677000000001,-628.2756,-465.7708,-634.2837000000001,-934.1165000000001,-555.034,-544.7344,-520.1298,-638.2891000000001,-452.6102,-680.918,-518.1271,3.4332000000000003,-491.8059,-918.6671000000001,-514.4078000000001,-893.4903,-937.5497,-523.2769000000001,-611.3957,-680.918,-597.0907000000001,0.0,-783.3418,-517.2688,-716.9666000000001,-887.7683000000001,-1004.2110000000001
1778755611.012868,-773.9005000000001,-774.4727,-696.9396,-547.3093,-757.0206000000001,-630.8505,-468.91790000000003,-641.1501000000001,-922.3864000000001,-569.6251000000001,-559.0394,-533.0043000000001,-642.5806,-465.7708,-687.7844,-536.1514000000001,4.863700000000001,-498.38620000000003,-891.2015,-528.9989,-880.3297000000001,-918.3810000000001,-532.1460000000001,-608.8208000000001,-688.6427000000001,-610.5374,0.0,-779.9086000000001,-519.2715000000001,-717.5388,-876.8965000000001,-997.9168000000001
1778755611.013368,-795.0719,-794.2136,-721.8303000000001,-583.3579000000001,-771.6117,-651.4497,-489.80320000000006,-662.6076,-922.3864000000001,-600.8100000000001,-591.0826000000001,-565.6197000000001,-664.3242,-494.09470000000005,-710.9585000000001,-572.2,4.5776,-520.4159000000001,-885.7656000000001,-556.7506000000001,-884.3351,-918.0949,-554.1757,-616.5455000000001,-707.2392000000001,-638.5752,0.0,-792.7831000000001,-534.4348,-734.4187000000001,-887.1961000000001,-1009.9330000000001
1778755611.013868,-767.6063,-766.748,-702.3755000000001,-576.4915000000001,-741.8573,-628.8478,-471.2067,-644.0111,-885.1934000000001,-591.9409,-580.4969000000001,-555.6062000000001,-643.725,-481.5063,-692.6481,-556.7506000000001,4.5776,-502.96380000000005,-840.2757,-545.8788000000001,-843.4228,-872.8911,-536.1514000000001,-591.9409,-686.3539000000001,-623.6980000000001,0.0,-764.4592,-510.1163,-708.3836,-854.5807000000001,-977.8898
1778755611.014368,-751.8708,-750.4403000000001,-690.3593000000001,-571.0556,-716.9666000000001,-617.1177,-462.62370000000004,-635.7142,-857.4417000000001,-587.9355,-579.0664,-552.4591,-633.7115,-482.93680000000006,-680.6319000000001,-555.8923000000001,2.5749000000000004,-494.66690000000006,-805.6576,-543.8761000000001,-814.5267,-838.8452000000001,-531.0016,-580.2108000000001,-675.7682000000001,-617.976,0.0,-747.0071,-499.53060000000005,-696.3674000000001,-831.9788000000001,-953.5713000000001
1778755611.014868,-722.9747000000001,-722.6886000000001,-665.4686,-551.6008,-683.779,-597.0907000000001,-441.45230000000004,-612.8262000000001,-818.8182,-574.2027,-564.4753000000001,-533.5765,-611.6818000000001,-468.91790000000003,-659.7466000000001,-543.3039,4.5776,-479.21750000000003,-761.3121000000001,-533.2904000000001,-777.0476000000001,-797.6468000000001,-519.5576000000001,-560.1838,-658.0300000000001,-603.671,0.0,-719.5415,-483.79510000000005,-674.9099,-800.2217,-917.2366000000001
1778755611.015368,-690.0732,-690.0732,-635.4281000000001,-530.4294,-648.0165000000001,-564.4753000000001,-414.845,-583.0718,-774.1866000000001,-553.3174,-539.0124000000001,-505.25260000000003,-583.644,-445.45770000000005,-631.4227000000001,-524.4213000000001,2.861,-457.4739,-710.9585000000001,-515.2661,-731.8438000000001,-747.0071,-497.814,-526.1379000000001,-634.8559,-579.3525000000001,0.0,-685.2095,-454.0407,-642.5806,-755.3040000000001,-871.1745000000001
1778755611.015868,-650.8775,-650.0192000000001,-598.5212,-502.39160000000004,-599.0934000000001,-526.7101,-380.2269,-547.0232000000001,-724.6913000000001,-523.563,-506.39700000000005,-466.05690000000004,-543.8761000000001,-412.2701,-596.5185,-495.52520000000004,5.4359,-424.5724,-652.5941,-489.5171,-680.918,-690.3593000000001,-460.62100000000004,-485.22560000000004,-597.0907000000001,-545.8788000000001,0.0,-643.1528000000001,-412.8423,-597.9490000000001,-703.806,-817.1016000000001
1778755611.016368,-635.4281000000001,-636.2864000000001,-585.0745000000001,-490.9476,-571.6278000000001,-506.39700000000005,-347.61150000000004,-528.9989,-694.3647000000001,-514.98,-494.95300000000003,-443.7411,-520.4159000000001,-391.38480000000004,-582.4996,-484.36730000000006,4.2915,-403.401,-621.6953000000001,-475.49820000000005,-652.0219000000001,-659.7466000000001,-438.59130000000005,-466.343,-580.4969000000001,-534.4348,0.0,-624.8424,-388.8099,-578.7803,-681.7763000000001,-799.6495000000001
1778755611.0168679,-651.1636000000001,-654.3107,-606.532,-508.68580000000003,-575.6332,-514.6939,-339.0285,-541.5873,-693.5064000000001,-535.0070000000001,-516.4105000000001,-454.32680000000005,-533.0043000000001,-401.3983,-599.9517000000001,-505.53870000000006,4.863700000000001,-411.12570000000005,-631.4227000000001,-493.8086,-656.5995,-658.3161,-448.31870000000004,-477.2148,-599.0934000000001,-554.4618,0.0,-638.2891000000001,-393.6736,-598.8073,-694.3647000000001,-825.9707000000001
1778755611.017368,-667.1852,-667.7574000000001,-625.4146000000001,-530.7155,-580.4969000000001,-524.1352,-341.31730000000005,-550.7425000000001,-690.9315,-556.4645,-543.3039,-474.92600000000004,-549.5981,-415.98940000000005,-619.1204,-526.7101,6.2942,-417.706,-633.9976,-514.4078000000001,-659.1744000000001,-654.3107,-462.62370000000004,-488.08660000000003,-613.9706,-573.0583,0.0,-646.0138000000001,-403.11490000000003,-617.6899000000001,-704.9504000000001,-845.4255
1778755611.017868,-649.7331,-650.0192000000001,-621.9814,-547.3093,-559.0394,-509.83020000000005,-327.01230000000004,-536.1514000000001,-654.8829000000001,-559.0394,-553.8896000000001,-483.509,-537.0097000000001,-411.98400000000004,-610.8235000000001,-531.8599,6.5803,-406.26200000000006,-593.3714,-514.1217,-626.8451,-618.5482000000001,-453.75460000000004,-471.2067,-604.5293,-570.4834000000001,0.0,-624.5563000000001,-389.95430000000005,-602.2405,-680.918,-822.5375
1778755611.018368,-544.1622,-543.8761000000001,-539.2985,-517.2688,-447.1743,-422.28360000000004,-266.9313,-450.89360000000005,-510.68850000000003,-509.25800000000004,-513.2634,-443.7411,-456.0434,-371.0717,-528.7128,-491.23370000000006,4.863700000000001,-335.88140000000004,-413.7006,-468.3457,-484.36730000000006,-463.482,-393.1014,-369.9273,-522.7047,-508.39970000000005,0.0,-508.1136,-319.57370000000003,-507.5414,-548.7398000000001,-680.3458
1778755611.018868,-299.54670000000004,-300.97720000000004,-328.1567,-391.95700000000005,-186.82330000000002,-220.8692,-139.90290000000002,-259.4927,-190.25650000000002,-375.64930000000004,-390.2404,-329.01500000000004,-275.51430000000005,-276.37260000000003,-332.7343,-378.7964,5.4359,-182.8179,-25.749000000000002,-351.3308,-157.64110000000002,-109.5763,-257.77610000000004,-147.9137,-334.737,-353.9057,0.0,-246.61820000000003,-173.6627,-295.2552,-245.1877,-349.04200000000003
1778755611.019368,-18.596500000000002,-20.8853,-78.9636,-220.29700000000003,97.274,-2.861,-6.8664000000000005,-41.7706,157.0689,-199.41170000000002,-222.8719,-186.82330000000002,-70.6667,-159.6438,-96.12960000000001,-226.019,4.5776,-22.6019,350.7586,-204.27540000000002,193.68970000000002,262.9259,-105.2848,71.525,-115.5844,-165.3658,0.0,38.6235,-12.5884,-55.789500000000004,76.96090000000001,22.6019
1778755611.019868,242.0406,242.0406,159.07160000000002,-33.759800000000006,366.78020000000004,201.12830000000002,125.88400000000001,161.9326,466.62910000000005,-15.4494,-42.342800000000004,-20.313100000000002,139.0446,-29.1822,132.7504,-58.078300000000006,4.0054,134.467,663.7520000000001,-40.3401,503.2499,583.9301,56.0756,269.7923,106.71530000000001,30.8988,0.0,300.97720000000004,143.9083,178.52640000000002,377.07980000000003,370.21340000000004
1778755611.0203679,467.48740000000004,466.9152,365.34970000000004,132.7504,592.2270000000001,377.9381,241.7545,341.6034,726.6940000000001,150.48860000000002,126.45620000000001,147.6276,334.45090000000005,94.1269,338.4563,100.135,4.863700000000001,275.51430000000005,920.6698000000001,117.5871,763.0287000000001,851.7197000000001,208.5669,442.88280000000003,314.4239,215.4333,0.0,531.2877000000001,283.5251,394.24580000000003,645.1555000000001,678.6292000000001
1778755611.020868,650.3053000000001,651.4497,531.5738,275.2282,763.8870000000001,520.9881,337.598,489.23100000000005,928.9667000000001,293.53860000000003,272.3672,288.961,495.52520000000004,205.1337,507.25530000000003,239.46570000000003,5.149800000000001,387.09330000000006,1102.6294,253.7707,964.4431000000001,1053.1341,337.88410000000005,577.6359,483.509,371.0717,0.0,710.6724,391.95700000000005,570.1973,856.2973000000001,926.3918000000001
1778755611.021368,797.3607000000001,797.0746,667.4713,398.82340000000005,886.3378,629.4200000000001,409.4091,603.3849,1071.7306,415.7033,397.1068,406.26200000000006,619.9787,296.6857,640.2918000000001,359.91380000000004,5.149800000000001,475.2121,1216.2111,372.5022,1103.4877000000001,1187.0289,441.16620000000006,670.9045000000001,620.5509000000001,502.10550000000006,0.0,846.8560000000001,476.07040000000006,707.2392000000001,1008.5025,1113.2151000000001
1778755611.021868,923.5308000000001,920.3837000000001,786.7750000000001,513.5495000000001,983.8979,723.5469,474.06770000000006,711.5307,1187.6011,531.0016,515.2661,512.119,725.2635,385.6628,765.0314000000001,470.3484,4.5776,553.3174,1292.8859,483.509,1213.064,1284.5890000000002,535.8653,747.0071,739.8546,621.4092,0.0,961.8682000000001,552.7452000000001,820.8209,1133.5282,1266.2786
1778755611.022368,990.4782000000001,991.0504000000001,859.1583,595.0880000000001,1027.9573,775.6171,517.841,775.9032000000001,1238.2408,615.4011,601.0961000000001,591.3687,793.3553,453.18240000000003,841.134,552.7452000000001,4.0054,598.2351,1294.8886,564.7614000000001,1253.9763,1313.199,601.0961000000001,777.9059000000001,817.1016000000001,699.8006,0.0,1020.2326,595.0880000000001,890.0571000000001,1187.8872000000001,1341.8090000000002
1778755611.022868,1033.6793,1035.3959,909.7980000000001,665.7547000000001,1043.1206,813.0962000000001,555.8923000000001,824.8263000000001,1259.4122,685.2095,672.6211000000001,655.1690000000001,848.5726000000001,514.6939,895.2069,624.8424,3.1471,633.4254000000001,1271.1423000000002,632.2810000000001,1265.4203,1312.0546000000002,655.4551,799.6495000000001,871.7467,757.5928,0.0,1051.7036,633.9976,938.6941,1215.9250000000002,1379.5742
1778755611.023368,1065.7225,1063.7198,945.2744,724.1191,1049.4148,842.8506000000001,587.6494,856.0112,1261.4149,743.0017,731.2716,711.8168000000001,890.6293000000001,569.9112,934.6887,683.779,3.1471,654.0246000000001,1234.8076,688.9288,1263.1315000000002,1295.4608,700.945,813.6684,914.0895,807.6603,0.0,1067.153,663.7520000000001,970.7373000000001,1227.3690000000001,1399.6012
1778755611.023868,1078.597,1079.1692,966.7319000000001,767.8924000000001,1044.265,864.8803,614.8289000000001,879.1853000000001,1246.2516,785.0584,775.0449000000001,751.8708,916.3783000000001,613.9706,959.5794000000001,724.4052,4.0054,668.0435,1191.0343,732.1299,1245.3933000000002,1266.2786,731.2716,819.3904000000001,937.8358000000001,845.1394,0.0,1072.0167000000001,681.2041,987.3311000000001,1221.0748,1398.7429000000002
1778755611.024368,1029.6739,1030.2461,930.3972000000001,760.7399,973.8844,826.2568000000001,596.2324000000001,848.0004,1169.2907,776.1893,767.0341000000001,739.5685000000001,884.6212,613.3984,926.1057000000001,722.9747000000001,4.863700000000001,636.0003,1069.4418,724.4052,1155.2718,1166.4297000000001,703.5199,764.7453,902.6455000000001,822.8236,0.0,1012.2218,648.8748,932.9721000000001,1138.1058,1317.2044
1778755611.024868,926.3918000000001,929.5389,851.4336000000001,726.9801000000001,843.4228,743.86,548.7398000000001,773.0422000000001,1009.0747000000001,740.4268000000001,736.1353,702.9477,808.5186000000001,589.6521,852.2919,702.0894000000001,3.4332000000000003,569.9112,858.5861000000001,690.0732,988.1894000000001,981.0369000000001,650.5914,660.0327000000001,824.2541000000001,770.1812000000001,0.0,892.3459,584.5023,835.412,991.3365000000001,1163.2826
1778755611.039011,743.86,746.1488,690.9315,625.1285,635.7142,589.6521,432.8693,624.8424,767.8924000000001,631.9949,634.5698000000001,597.3768,660.8910000000001,499.2445,699.5145,605.3876,4.0054,452.038,581.3552000000001,591.0826000000001,747.0071,720.3998,539.2985,488.08660000000003,679.4875000000001,645.1555000000001,0.0,697.2257000000001,459.76270000000005,667.7574000000001,774.7588000000001,924.1030000000001
1778755611.039511,589.3660000000001,587.0772000000001,543.59,546.451,473.49550000000005,465.19860000000006,341.31730000000005,499.8167,567.6224000000001,541.0151000000001,553.8896000000001,520.9881,545.3066,430.58050000000003,569.9112,528.4267,4.863700000000001,366.208,366.208,519.5576000000001,546.7371,506.6831,455.4712,360.7721,565.3336,547.5954,0.0,542.1595000000001,368.21070000000003,541.3012,603.0988000000001,727.5523000000001
1778755611.040011,474.92600000000004,473.7816,436.01640000000003,489.23100000000005,365.6358,381.08520000000004,274.0838,412.55620000000005,413.98670000000004,478.35920000000004,497.52790000000005,470.06230000000005,465.7708,379.65470000000005,477.50090000000006,474.6399,5.722,310.7046,221.44140000000002,468.91790000000003,397.39290000000005,346.75320000000005,395.1041,285.5278,486.9422,482.0785,0.0,428.86390000000006,303.266,454.89900000000006,478.0731,583.3579000000001
1778755611.040511,361.34430000000003,358.1972,326.44010000000003,404.54540000000003,245.1877,279.80580000000003,182.2457,314.1378,259.20660000000004,396.5346,415.98940000000005,389.6682,359.91380000000004,304.41040000000004,376.7937,399.1095,4.2915,234.02980000000002,83.25510000000001,392.2431,246.33210000000003,188.53990000000002,310.7046,198.83950000000002,389.95430000000005,392.2431,0.0,304.98260000000005,216.29160000000002,343.8922,337.598,434.872
1778755611.041011,234.602,233.74370000000002,204.27540000000002,299.54670000000004,108.43190000000001,162.50480000000002,91.2659,204.56150000000002,106.42920000000001,297.8301,313.27950000000004,280.9502,222.01360000000003,209.99740000000003,259.20660000000004,302.97990000000004,3.1471,142.1917,-65.2308,293.8247,92.4103,25.749000000000002,206.8503,93.2686,267.2174,281.2363,0.0,171.9461,116.7288,209.71130000000002,171.66000000000003,268.3618
1778755611.041511,136.46970000000002,137.328,114.7261,228.0217,8.583,83.5412,33.759800000000006,124.73960000000001,-17.4521,229.16610000000003,240.61010000000002,205.99200000000002,116.7288,153.6357,173.37660000000002,234.02980000000002,2.861,80.39410000000001,-187.10940000000002,226.87730000000002,-26.607300000000002,-100.135,138.7585,11.444,173.9488,202.84490000000002,0.0,72.3833,55.789500000000004,111.2929,44.3455,131.31990000000002
1778755611.042011,62.369800000000005,62.08370000000001,52.92850000000001,192.54530000000003,-61.22540000000001,36.6208,10.0135,71.2389,-115.5844,188.53990000000002,198.5534,167.0824,59.794900000000005,131.8921,113.0095,198.5534,5.722,48.064800000000005,-278.37530000000004,193.1175,-122.45080000000002,-199.41170000000002,105.2848,-34.0459,114.15390000000001,152.7774,0.0,-3.7193000000000005,28.323900000000002,46.6343,-45.489900000000006,25.1768
1778755611.042511,-37.4791,-39.767900000000004,-32.6154,133.6087,-155.0662,-30.8988,-19.454800000000002,-0.5722,-234.31590000000003,129.88940000000002,140.4751,115.0122,-4.0054,101.56550000000001,30.326600000000003,147.6276,3.4332000000000003,4.5776,-396.82070000000004,143.9083,-244.04330000000002,-322.14860000000004,64.0864,-98.1323,31.7571,84.97170000000001,0.0,-102.99600000000001,-10.0135,-34.0459,-160.78820000000002,-117.01490000000001
1778755611.043011,-167.3685,-170.5156,-145.33880000000002,44.9177,-274.36990000000003,-128.4589,-69.23620000000001,-96.98790000000001,-377.65200000000004,39.1957,52.07020000000001,34.9042,-95.5574,43.4872,-82.11070000000001,63.228100000000005,6.008100000000001,-63.228100000000005,-541.3012,63.5142,-388.2377,-468.63180000000006,-8.2969,-189.11210000000003,-79.53580000000001,-10.8718,0.0,-230.59660000000002,-78.67750000000001,-145.33880000000002,-311.5629,-294.3969
1778755611.043511,-361.34430000000003,-363.6331,-318.71540000000005,-109.29020000000001,-455.75730000000004,-290.9637,-181.95960000000002,-257.20390000000003,-577.922,-112.72340000000001,-100.135,-109.86240000000001,-252.3402,-77.5331,-256.3456,-84.3995,6.008100000000001,-183.96230000000003,-738.9963,-80.39410000000001,-591.3687,-673.1933,-139.0446,-335.30920000000003,-255.20120000000003,-172.2322,0.0,-417.41990000000004,-203.4171,-324.15130000000005,-524.1352,-535.8653
1778755611.044011,-501.53330000000005,-504.1082,-454.0407,-228.88000000000002,-578.7803,-401.9705,-262.3537,-370.78560000000004,-714.9639000000001,-237.17690000000002,-225.73290000000003,-224.01630000000003,-373.0744,-172.80440000000002,-391.0987,-201.12830000000002,5.4359,-268.934,-857.4417000000001,-197.40900000000002,-731.2716,-809.0908000000001,-239.17960000000002,-429.15000000000003,-389.6682,-302.6938,0.0,-549.312,-294.68300000000005,-459.19050000000004,-665.4686,-708.0975000000001
1778755611.044511,-608.8208000000001,-608.8208000000001,-557.8950000000001,-344.17830000000004,-650.3053000000001,-486.37000000000006,-337.31190000000004,-465.48470000000003,-788.4916000000001,-359.05550000000005,-348.75590000000005,-335.0231,-472.35110000000003,-277.517,-505.53870000000006,-321.57640000000004,4.5776,-346.75320000000005,-894.9208000000001,-316.71270000000004,-805.3715000000001,-869.1718000000001,-337.598,-495.8113,-500.10280000000006,-416.2755,0.0,-633.9976,-376.22150000000005,-563.0448,-742.7156000000001,-820.5348
1778755611.045011,-672.335,-670.6184000000001,-613.9706,-414.55890000000005,-683.779,-536.7236,-379.08250000000004,-523.8491,-816.8155,-436.8747,-428.5778,-405.11760000000004,-526.7101,-343.32000000000005,-568.7668,-395.9624,2.5749000000000004,-392.81530000000004,-903.5038000000001,-390.81260000000003,-836.5564,-886.9100000000001,-402.5427,-533.8626,-565.9058,-486.0839,0.0,-684.3512000000001,-421.99750000000006,-625.1285,-789.0638,-882.9046000000001
1778755611.045511,-715.5361,-716.3944,-648.3026000000001,-462.05150000000003,-709.528,-573.3444000000001,-407.4064,-569.9112,-840.8479000000001,-492.09200000000004,-490.66150000000005,-454.0407,-567.3363,-391.0987,-615.9733,-450.6075,3.1471,-431.15270000000004,-911.8007000000001,-443.7411,-856.5834000000001,-899.7845000000001,-447.7465,-563.3309,-613.9706,-535.2931000000001,0.0,-722.1164,-455.75730000000004,-668.3296,-827.4012,-928.6806
1778755611.046011,-744.4322000000001,-747.8654,-665.7547000000001,-496.3835,-726.9801000000001,-605.3876,-436.58860000000004,-603.0988000000001,-856.0112,-530.1433000000001,-531.8599,-489.80320000000006,-597.9490000000001,-430.58050000000003,-652.0219000000001,-494.3808,4.0054,-462.05150000000003,-914.9478,-484.65340000000003,-868.3135000000001,-907.2231,-484.0812,-587.6494,-649.447,-571.3417000000001,0.0,-750.4403000000001,-480.93410000000006,-700.945,-848.8587000000001,-957.0045000000001
1778755611.046511,-755.5901,-757.0206000000001,-650.5914,-508.68580000000003,-714.6778,-614.8289000000001,-445.1716,-615.9733,-854.2946000000001,-545.0205000000001,-549.8842000000001,-504.6804,-600.5239,-450.32140000000004,-664.0381000000001,-511.26070000000004,4.5776,-473.49550000000005,-895.493,-504.39430000000004,-861.7332,-893.7764000000001,-502.6777,-589.0799000000001,-660.6049,-588.2216000000001,0.0,-753.8735,-490.08930000000004,-711.2446000000001,-850.5753000000001,-956.1462
1778755611.047011,-764.4592,-763.8870000000001,-642.2945000000001,-527.5684,-709.528,-622.8397,-455.4712,-625.4146000000001,-848.5726000000001,-561.6143000000001,-573.9166,-520.1298,-600.8100000000001,-467.20130000000006,-676.6265000000001,-530.7155,5.722,-486.9422,-884.3351,-526.4240000000001,-858.3000000000001,-880.0436000000001,-519.2715000000001,-600.5239,-676.3404,-607.1042,0.0,-761.5982,-501.53330000000005,-719.5415,-846.2838,-963.0126
1778755611.047511,-763.8870000000001,-763.3148000000001,-657.1717000000001,-554.7479000000001,-708.9558000000001,-627.9895,-457.18780000000004,-631.7088,-840.5618000000001,-578.2081000000001,-610.2513,-541.0151000000001,-603.0988000000001,-482.93680000000006,-685.2095,-556.7506000000001,4.5776,-504.96650000000005,-870.0301000000001,-550.4564,-852.8641,-866.5969000000001,-533.5765,-606.532,-691.2176000000001,-627.7034000000001,0.0,-764.7453,-508.97190000000006,-722.4025,-843.1367,-972.1678
1778755611.048011,-761.3121000000001,-762.7426,-678.9153,-577.3498000000001,-709.2419000000001,-633.1393,-467.7735,-637.4308000000001,-831.9788000000001,-593.3714,-640.0057,-562.7587000000001,-611.9679000000001,-499.53060000000005,-693.7925,-579.9247,4.5776,-523.8491,-863.7359,-572.7722,-847.1421,-856.8695,-550.1703,-617.4038,-710.3863,-649.7331,0.0,-762.7426,-519.2715000000001,-728.6967000000001,-843.1367,-978.4620000000001
1778755611.048511,-748.7237,-750.4403000000001,-685.2095,-584.5023,-694.9369,-624.8424,-466.05690000000004,-633.1393,-812.5240000000001,-598.8073,-642.5806,-568.4807000000001,-609.9652000000001,-503.82210000000003,-693.7925,-589.0799000000001,6.5803,-527.8545,-841.9923000000001,-579.6386,-827.6873,-832.2649,-549.8842000000001,-609.9652000000001,-709.528,-651.1636000000001,0.0,-751.2986000000001,-512.9773,-719.5415,-822.8236,-963.2987
1778755611.049011,-729.2689,-729.8411000000001,-674.9099,-573.0583,-668.3296,-603.3849,-446.88820000000004,-616.8316000000001,-783.6279000000001,-590.5104,-622.8397,-554.4618,-591.3687,-490.9476,-675.4821000000001,-579.3525000000001,5.722,-512.9773,-800.7939,-569.339,-795.0719,-793.3553,-532.7182,-583.0718,-685.2095,-636.2864000000001,0.0,-726.6940000000001,-494.09470000000005,-696.9396,-788.7777000000001,-926.964
1778755611.049511,-706.0948000000001,-706.9531000000001,-654.3107,-547.0232000000001,-632.2810000000001,-576.7776,-425.71680000000003,-597.0907000000001,-751.8708,-578.2081000000001,-587.9355,-533.2904000000001,-567.0502,-473.7816,-653.4524,-561.3282,3.7193000000000005,-489.5171,-753.8735,-550.1703,-754.7318,-754.7318,-509.25800000000004,-552.7452000000001,-658.3161,-612.5401,0.0,-694.9369,-473.49550000000005,-668.3296,-752.1569000000001,-880.9019000000001
1778755611.050011,-703.806,-704.0921000000001,-649.1609000000001,-534.7209,-614.2567,-566.4780000000001,-408.2647,-591.3687,-734.9909,-579.0664,-570.4834000000001,-521.8464,-558.1811,-467.48740000000004,-649.7331,-556.1784,3.1471,-474.92600000000004,-731.2716,-541.5873,-736.9936,-735.8492000000001,-500.10280000000006,-543.8761000000001,-649.7331,-605.9598000000001,0.0,-690.9315,-460.9071,-662.3215,-743.2878000000001,-868.3135000000001
1778755611.050511,-713.2473,-712.6751,-643.4389000000001,-540.729,-613.3984,-575.061,-389.95430000000005,-596.5185,-730.1272,-585.0745000000001,-566.4780000000001,-524.7074,-565.9058,-464.62640000000005,-658.8883000000001,-559.3255,4.5776,-473.49550000000005,-721.2581,-543.8761000000001,-730.9855,-726.6940000000001,-493.52250000000004,-544.1622,-655.1690000000001,-609.1069,0.0,-693.5064000000001,-456.32950000000005,-670.9045000000001,-747.0071,-874.3216000000001
1778755611.051011,-704.6643,-706.0948000000001,-629.4200000000001,-547.8815000000001,-605.3876,-571.9139,-377.9381,-590.2243000000001,-716.6805,-579.3525000000001,-566.7641,-526.4240000000001,-564.4753000000001,-460.0488,-658.0300000000001,-557.6089000000001,4.2915,-466.9152,-705.2365000000001,-543.8761000000001,-713.2473,-706.3809,-489.5171,-537.0097000000001,-651.1636000000001,-605.1015000000001,0.0,-686.3539000000001,-446.02990000000005,-666.8991000000001,-738.9963,-874.6077
1778755611.051511,-697.2257000000001,-699.5145,-634.2837000000001,-574.4888000000001,-594.8019,-569.9112,-384.51840000000004,-590.7965,-694.6508,-587.3633000000001,-594.2297000000001,-542.7317,-565.3336,-470.63450000000006,-666.0408000000001,-579.3525000000001,3.7193000000000005,-473.49550000000005,-678.9153,-558.4672,-698.0840000000001,-684.3512000000001,-495.52520000000004,-532.1460000000001,-656.3134,-619.4065,0.0,-680.3458,-447.1743,-663.4659,-730.9855,-870.3162000000001
1778755611.052011,-583.9301,-582.7857,-555.3201,-543.0178000000001,-477.2148,-479.50360000000006,-323.57910000000004,-500.675,-548.7398000000001,-531.2877000000001,-554.1757,-491.51980000000003,-484.36730000000006,-425.71680000000003,-582.4996,-534.4348,3.4332000000000003,-404.25930000000005,-505.25260000000003,-510.1163,-556.7506000000001,-528.4267,-437.733,-429.15000000000003,-577.6359,-560.1838,0.0,-564.4753000000001,-375.9354,-570.4834000000001,-601.9544000000001,-729.2689
1778755611.052511,-363.34700000000004,-362.7748,-381.3713,-471.2067,-235.74640000000002,-304.1243,-225.16070000000002,-336.45360000000005,-257.49,-420.28090000000003,-461.19320000000005,-389.38210000000004,-326.154,-355.3362,-406.8342,-441.45230000000004,4.5776,-277.2309,-155.92450000000002,-413.7006,-262.3537,-207.4225,-328.44280000000003,-234.8881,-410.55350000000004,-429.72220000000004,0.0,-325.58180000000004,-251.48190000000002,-377.9381,-330.44550000000004,-424.85850000000005
1778755611.053011,-71.525,-72.3833,-122.45080000000002,-292.68030000000005,71.81110000000001,-66.9474,-76.3887,-102.7099,99.2767,-230.59660000000002,-278.37530000000004,-209.71130000000002,-92.4103,-214.57500000000002,-153.3496,-270.07840000000004,5.4359,-98.4184,231.4549,-243.7572,105.2848,182.8179,-149.05810000000002,3.7193000000000005,-160.216,-216.57770000000002,0.0,-22.888,-71.81110000000001,-110.14850000000001,15.735500000000002,-34.332
1778755611.053511,218.29430000000002,220.58310000000003,156.4967,-50.9258,373.9327,173.9488,96.12960000000001,137.6141,432.011,-12.5884,-50.3536,0.2861,155.3523,-45.2038,112.72340000000001,-66.9474,4.863700000000001,91.2659,584.2162000000001,-38.051300000000005,449.177,539.2985,48.923100000000005,243.18500000000003,107.28750000000001,21.171400000000002,0.0,271.795,120.44810000000001,165.93800000000002,356.7667,348.4698
1778755611.054011,458.0461,458.9044,389.6682,157.35500000000002,611.6818000000001,364.2053,235.1742,336.7397,703.2338000000001,171.08780000000002,151.3469,170.8017,352.7613,93.55470000000001,331.3038,109.5763,5.4359,245.4738,857.1556,137.6141,725.2635,820.5348,212.0001,429.15000000000003,327.58450000000005,224.01630000000003,0.0,510.1163,272.3672,386.8072,625.7007000000001,667.4713
1778755611.054511,646.2999000000001,644.8694,573.3444000000001,308.7019,765.3175000000001,503.82210000000003,338.4563,491.51980000000003,905.2204,311.27680000000004,302.6938,294.3969,492.66420000000005,204.56150000000002,505.53870000000006,250.6236,4.863700000000001,356.48060000000004,1039.9735,275.8004,926.6779,1021.6631000000001,337.0258,557.0367,491.23370000000006,383.08790000000005,0.0,692.9342,378.7964,551.6008,815.6711,904.3621
1778755611.055011,813.6684,814.2406000000001,733.2743,447.7465,891.2015,633.7115,429.72220000000004,632.8532,1065.7225,456.61560000000003,441.45230000000004,417.41990000000004,624.5563000000001,315.28220000000005,661.1771,381.3713,2.2888,460.33490000000006,1175.2988,413.41450000000003,1086.6078,1177.0154,457.18780000000004,670.3323,644.2972000000001,529.8572,0.0,853.1502,481.79240000000004,700.3728000000001,975.0288,1106.6348
1778755611.050172,976.7454,977.3176000000001,872.3189000000001,592.2270000000001,1021.6631000000001,766.1758000000001,524.9935,772.1839000000001,1212.4918,608.2486,579.9247,557.0367,767.8924000000001,439.7357,816.2433000000001,522.9908,4.863700000000001,571.6278000000001,1289.7388,556.4645,1229.9439,1310.9102,584.2162000000001,783.0557,802.5105000000001,673.7655000000001,0.0,997.0585000000001,588.7938,851.1475,1136.3892,1290.3110000000001
1778755611.050672,1079.4553,1081.7441000000001,963.0126,704.0921000000001,1098.624,854.5807000000001,599.3795,866.5969000000001,1298.0357000000001,724.1191,684.0651,666.0408000000001,872.0328000000001,539.5846,924.3891000000001,633.1393,5.4359,650.8775,1327.5040000000001,665.1825,1303.4716,1372.1356,682.3485000000001,848.5726000000001,907.5092000000001,776.4754,0.0,1087.4661,664.3242,949.8520000000001,1231.6605000000002,1391.8765
1778755611.051172,1129.8089,1130.095,1019.0882,759.0233000000001,1116.0761,896.3513,642.8667,915.8061,1318.921,792.2109,734.9909,719.8276000000001,920.9559,605.3876,983.0396000000001,694.9369,3.7193000000000005,687.4983000000001,1307.7631000000001,722.6886000000001,1314.3434000000002,1371.5634,735.5631000000001,869.1718000000001,950.4242,819.1043000000001,0.0,1120.0815,698.3701000000001,997.6307,1252.2597,1408.7564000000002
1778755611.051672,1128.6645,1128.3784,1028.8156000000001,766.4619,1082.8885,893.2042,646.2999000000001,924.1030000000001,1288.0222,815.9572000000001,740.999,726.6940000000001,922.3864000000001,628.5617000000001,988.1894000000001,710.9585000000001,3.1471,684.3512000000001,1240.8157,731.5577000000001,1278.5809000000002,1322.9264,745.0044,848.5726000000001,943.8439000000001,815.9572000000001,0.0,1105.4904000000001,694.6508,993.3392000000001,1223.3636000000001,1373.8522
1778755611.0521722,1112.929,1111.4985000000001,1019.0882,780.7669000000001,1039.9735,884.9073000000001,642.0084,913.2312000000001,1246.2516,823.6819,757.0206000000001,733.2743,914.9478,638.5752,979.3203000000001,724.6913000000001,6.008100000000001,678.9153,1176.4432000000002,740.999,1238.5269,1270.284,749.5820000000001,828.2595000000001,938.408,821.6792,0.0,1085.4634,686.6400000000001,984.7562,1196.4702,1350.6781
1778755611.0526721,1071.7306,1070.5862000000002,986.4728000000001,799.3634000000001,988.1894000000001,868.8857,629.7061,891.4876,1175.871,825.3985,781.3391,747.2932000000001,903.2177,649.447,959.5794000000001,739.8546,4.863700000000001,669.474,1076.0221000000001,754.4457000000001,1169.5768,1186.7428,749.8681,794.7858000000001,932.9721000000001,829.4039,0.0,1042.5484000000001,671.4767,962.7265000000001,1153.8413,1310.0519000000002
1778755611.053172,967.018,966.4458000000001,900.0706,784.2001,871.7467,790.4943000000001,582.2135000000001,817.6738,1023.9519,789.9221000000001,761.0260000000001,726.6940000000001,838.8452000000001,628.5617000000001,888.9127000000001,718.6832,4.2915,616.5455000000001,883.4768,728.1245,1015.6550000000001,1018.2299,708.0975000000001,704.3782000000001,872.0328000000001,789.0638,0.0,930.1111000000001,619.1204,880.9019000000001,1024.238,1179.8764
1778755611.053672,787.3472,787.0611,741.5712000000001,679.2014,676.0543,639.7196,474.35380000000004,670.6184000000001,791.3526,684.6373000000001,673.1933,629.9922,692.3620000000001,537.5819,741.8573,631.4227000000001,4.5776,500.10280000000006,624.8424,633.9976,783.9140000000001,767.6063,595.6602,550.1703,732.416,674.9099,0.0,739.2824,495.23910000000006,713.8195000000001,806.2298000000001,959.8655000000001
1778755611.054172,663.4659,662.3215,631.7088,548.1676,535.8653,544.4483,417.706,580.783,618.5482000000001,626.8451,636.0003,580.4969000000001,604.5293,492.66420000000005,648.8748,595.6602,4.5776,437.16080000000005,449.46310000000005,587.3633000000001,610.8235000000001,576.2054,528.4267,454.0407,648.3026000000001,612.8262000000001,0.0,607.3903,426.0029,604.8154000000001,654.5968,811.9518
1778755611.054672,564.4753000000001,565.3336,553.0313,461.76540000000006,437.4469,475.78430000000003,365.0636,506.96920000000006,482.93680000000006,580.2108000000001,595.6602,541.5873,538.7263,456.0434,579.6386,561.9004,3.7193000000000005,394.81800000000004,328.44280000000003,555.8923000000001,478.6453,433.4415,479.50360000000006,392.81530000000004,589.6521,569.0529,0.0,510.1163,375.64930000000004,527.5684,547.3093,705.5226
1778755611.0551722,479.78970000000004,480.36190000000005,497.52790000000005,464.9125,362.2026,415.1311,305.84090000000003,437.16080000000005,356.1945,534.1487000000001,547.0232000000001,497.814,474.06770000000006,414.2728,510.40240000000006,526.7101,5.4359,352.18910000000005,230.59660000000002,516.9827,368.21070000000003,311.5629,428.29170000000005,339.0285,528.1406000000001,522.4186000000001,0.0,426.5751,329.01500000000004,460.0488,453.4685,598.8073
1778755611.0556722,369.9273,369.6412,401.68440000000004,432.29710000000006,261.7815,326.7262,229.7383,346.18100000000004,224.5885,463.76810000000006,475.49820000000005,427.4334,384.51840000000004,348.4698,418.5643,464.62640000000005,5.149800000000001,290.9637,115.0122,447.1743,244.32940000000002,181.67350000000002,357.3389,262.63980000000004,434.872,443.1689,0.0,319.57370000000003,259.77880000000005,365.6358,336.7397,458.0461
1778755611.0561721,245.4738,247.1904,288.1027,355.62230000000005,141.3334,222.01360000000003,151.0608,240.89620000000002,77.247,374.79100000000005,388.2377,335.5953,275.51430000000005,268.07570000000004,306.41310000000004,375.64930000000004,3.1471,209.99740000000003,-20.313100000000002,349.04200000000003,98.9906,35.476400000000005,267.2174,163.9353,312.9934,333.87870000000004,0.0,194.548,176.23760000000001,248.04870000000003,194.26190000000003,288.961
1778755611.056672,107.57360000000001,108.718,170.8017,252.0541,2.5749000000000004,98.70450000000001,58.936600000000006,119.87590000000002,-82.11070000000001,266.07300000000004,277.80310000000003,222.8719,148.48590000000002,172.80440000000002,175.9515,268.07570000000004,4.863700000000001,104.71260000000001,-184.2484,226.87730000000002,-67.51960000000001,-133.8948,157.9272,41.19840000000001,168.799,201.9866,0.0,46.9204,73.8138,108.718,25.1768,95.27130000000001
1778755611.057172,-60.653200000000005,-59.50880000000001,24.3185,117.5871,-162.79090000000002,-43.773300000000006,-37.193000000000005,-19.7409,-268.934,138.18630000000002,143.05,91.2659,1.4305,70.3806,22.6019,143.05,5.722,-15.735500000000002,-382.51570000000004,91.83810000000001,-260.9232,-331.3038,34.618100000000005,-103.85430000000001,-3.4332000000000003,55.503400000000006,0.0,-131.60600000000002,-44.059400000000004,-57.220000000000006,-175.3793,-130.1755
1778755611.057672,-243.4711,-243.7572,-151.0608,-34.332,-343.6061,-195.69240000000002,-140.7612,-170.2295,-464.3403,-9.727400000000001,-6.008100000000001,-52.356300000000005,-155.0662,-44.9177,-145.6249,0.2861,3.1471,-139.3307,-576.7776,-52.356300000000005,-459.76270000000005,-533.5765,-95.27130000000001,-251.76800000000003,-179.6708,-99.56280000000001,0.0,-313.85170000000005,-167.65460000000002,-230.88270000000003,-383.08790000000005,-365.92190000000005
1778755611.058172,-425.1446,-423.42800000000005,-325.2957,-179.95690000000002,-514.6939,-345.60880000000003,-242.89890000000003,-320.432,-656.3134,-159.9299,-155.92450000000002,-188.2538,-310.1324,-157.9272,-314.1378,-144.7666,2.861,-256.9178,-757.5928,-183.39010000000002,-654.0246000000001,-731.5577000000001,-221.1553,-394.81800000000004,-341.8895,-250.90970000000002,0.0,-490.3754,-285.24170000000004,-393.95970000000005,-577.922,-596.2324000000001
1778755611.0586722,-567.9085,-568.1946,-467.7735,-305.2687,-639.1474000000001,-462.05150000000003,-325.58180000000004,-440.02180000000004,-798.5051000000001,-292.68030000000005,-291.2498,-306.41310000000004,-438.01910000000004,-258.0622,-455.4712,-275.51430000000005,4.0054,-349.61420000000004,-868.0274000000001,-292.68030000000005,-798.5051000000001,-866.883,-327.01230000000004,-488.08660000000003,-468.91790000000003,-379.65470000000005,0.0,-626.8451,-377.07980000000003,-523.563,-717.2527,-768.4646
1778755611.0591722,-652.5941,-652.8802000000001,-556.1784,-401.3983,-692.3620000000001,-524.4213000000001,-379.08250000000004,-516.9827,-855.1529,-392.5292,-394.81800000000004,-394.24580000000003,-513.5495000000001,-339.0285,-546.1649,-376.7937,5.149800000000001,-404.8315,-875.466,-379.9408,-852.8641,-908.0814,-396.5346,-524.9935,-545.8788000000001,-472.06500000000005,0.0,-694.6508,-436.8747,-598.2351,-776.1893,-856.5834000000001
1778755611.059672,-704.3782000000001,-704.0921000000001,-611.9679000000001,-468.63180000000006,-719.5415,-563.6170000000001,-408.55080000000004,-566.1919,-878.0409000000001,-459.76270000000005,-466.05690000000004,-452.32410000000004,-562.1865,-391.38480000000004,-603.3849,-443.1689,4.5776,-440.8801,-874.3216000000001,-442.88280000000003,-872.0328000000001,-922.6725,-446.6021,-552.7452000000001,-604.2432,-529.8572,0.0,-732.9882,-473.7816,-648.5887,-814.8128,-910.9424
1778755611.060172,-746.1488,-743.86,-655.4551,-515.2661,-738.9963,-595.0880000000001,-427.4334,-602.2405,-894.6347000000001,-508.68580000000003,-517.841,-495.8113,-595.9463000000001,-428.0056,-647.4443,-491.23370000000006,4.0054,-468.63180000000006,-883.7629000000001,-487.5144,-888.0544000000001,-930.6833,-482.93680000000006,-584.2162000000001,-659.1744000000001,-573.6305000000001,0.0,-762.1704000000001,-495.23910000000006,-689.5010000000001,-861.1610000000001,-958.7211000000001
1778755611.060672,-768.4646,-766.4619,-678.057,-539.0124000000001,-737.2797,-617.4038,-445.1716,-619.9787,-901.7872000000001,-539.8707,-546.7371,-514.98,-613.9706,-453.18240000000003,-670.3323,-517.2688,4.863700000000001,-482.36460000000005,-891.4876,-508.1136,-885.4795,-922.3864000000001,-503.53600000000006,-606.2459,-690.0732,-591.0826000000001,0.0,-774.7588000000001,-506.39700000000005,-708.3836,-889.4849,-982.4674000000001
1778755611.061172,-775.331,-776.1893,-687.4983000000001,-550.1703,-718.1110000000001,-635.142,-458.9044,-629.7061,-898.9262000000001,-560.1838,-562.1865,-512.6912,-620.837,-475.2121,-681.4902000000001,-534.4348,4.863700000000001,-490.08930000000004,-878.3270000000001,-517.5549000000001,-871.1745000000001,-905.2204,-513.8356,-604.2432,-683.4929000000001,-601.0961000000001,0.0,-775.331,-513.5495000000001,-712.6751,-888.0544000000001,-988.1894000000001
1778755611.061672,-782.7696000000001,-783.3418,-696.0813,-559.8977,-703.5199,-645.4416,-467.7735,-639.1474000000001,-890.0571000000001,-571.6278000000001,-577.6359,-511.26070000000004,-625.7007000000001,-494.95300000000003,-692.3620000000001,-549.5981,4.5776,-498.10010000000005,-852.2919,-533.5765,-864.8803,-888.6266,-525.8518,-597.3768,-677.7709000000001,-613.9706,0.0,-776.4754,-520.702,-714.9639000000001,-870.6023,-987.9033000000001
1778755611.0621722,-776.7615000000001,-780.4808,-691.5037000000001,-559.6116000000001,-687.7844,-644.2972000000001,-471.49280000000005,-642.0084,-872.0328000000001,-575.3471000000001,-579.3525000000001,-502.39160000000004,-619.4065,-506.39700000000005,-690.3593000000001,-559.6116000000001,5.149800000000001,-503.2499,-817.3877000000001,-543.59,-851.4336000000001,-866.3108000000001,-532.7182,-586.2189000000001,-673.7655000000001,-618.5482000000001,0.0,-771.0395000000001,-522.9908,-705.2365000000001,-843.1367,-967.018
1778755611.0626721,-765.3175000000001,-766.748,-682.9207,-560.7560000000001,-679.7736000000001,-630.2783000000001,-462.9098,-630.8505,-846.8560000000001,-575.3471000000001,-577.922,-500.675,-602.2405,-505.53870000000006,-680.918,-562.7587000000001,4.863700000000001,-498.67230000000006,-779.9086000000001,-545.8788000000001,-829.4039,-838.5591000000001,-525.8518,-567.6224000000001,-666.3269,-618.8343000000001,0.0,-754.1596000000001,-514.6939,-689.5010000000001,-811.9518,-940.1246000000001
1778755611.063172,-755.5901,-756.1623000000001,-688.3566000000001,-591.3687,-719.2554,-606.8181000000001,-453.18240000000003,-622.5536000000001,-831.9788000000001,-586.7911,-600.8100000000001,-554.1757,-605.1015000000001,-502.10550000000006,-679.4875000000001,-577.3498000000001,4.5776,-505.25260000000003,-759.5955,-565.0475,-814.5267,-819.1043000000001,-527.5684,-568.7668,-680.3458,-630.8505,0.0,-745.0044,-512.6912,-688.3566000000001,-813.6684,-944.4161
1778755611.063672,-742.1434,-742.4295000000001,-684.0651,-609.6791000000001,-744.4322000000001,-577.0637,-441.16620000000006,-613.1123,-811.0935000000001,-593.3714,-617.1177,-608.5347,-616.8316000000001,-500.675,-676.0543,-591.3687,4.0054,-513.2634,-743.2878000000001,-584.7884,-799.9356,-797.3607000000001,-536.4375,-578.4942000000001,-695.7952,-643.725,0.0,-735.5631000000001,-513.2634,-698.0840000000001,-824.2541000000001,-946.9910000000001
1778755611.064172,-718.1110000000001,-718.1110000000001,-659.7466000000001,-585.0745000000001,-707.2392000000001,-548.4537,-423.42800000000005,-594.8019,-778.7642000000001,-581.0691,-603.9571000000001,-597.6629,-595.9463000000001,-488.9449,-657.1717000000001,-578.7803,4.2915,-503.2499,-706.9531000000001,-574.7749,-767.0341000000001,-760.1677000000001,-526.4240000000001,-565.0475,-680.918,-629.4200000000001,0.0,-712.1029000000001,-495.23910000000006,-680.6319000000001,-804.2271000000001,-914.0895
1778755611.064672,-720.6859000000001,-719.8276000000001,-665.7547000000001,-589.3660000000001,-680.918,-547.5954,-409.4091,-590.2243000000001,-761.0260000000001,-586.2189000000001,-607.9625000000001,-581.9274,-584.7884,-483.79510000000005,-656.8856000000001,-579.0664,3.7193000000000005,-497.52790000000005,-692.3620000000001,-572.4861000000001,-754.1596000000001,-743.86,-520.9881,-553.3174,-675.4821000000001,-629.7061,0.0,-705.8087,-486.65610000000004,-677.4848000000001,-793.6414000000001,-908.6536000000001
1778755611.0651722,-737.2797,-737.2797,-686.0678,-613.6845000000001,-680.3458,-563.6170000000001,-400.82610000000005,-603.0988000000001,-762.7426,-607.3903,-626.8451,-584.2162000000001,-595.0880000000001,-493.8086,-676.3404,-598.5212,3.4332000000000003,-503.2499,-698.0840000000001,-589.0799000000001,-757.0206000000001,-742.4295000000001,-528.4267,-561.6143000000001,-693.7925,-644.5833,0.0,-720.9720000000001,-489.80320000000006,-690.9315,-800.5078000000001,-929.5389
1778755611.0656722,-732.1299,-733.2743,-678.6292000000001,-605.3876,-662.8937000000001,-560.7560000000001,-385.6628,-599.3795,-745.0044,-607.1042,-623.4119000000001,-570.7695,-591.0826000000001,-489.23100000000005,-672.6211000000001,-597.3768,4.863700000000001,-492.09200000000004,-681.2041,-585.6467,-736.9936,-720.1137000000001,-520.1298,-553.8896000000001,-687.4983000000001,-642.2945000000001,0.0,-710.3863,-479.78970000000004,-686.6400000000001,-790.2082,-920.6698000000001
